Time,Amplitude
0.0,-0.027221034973788444
0.004001600640256103,0.6619422286751808
0.008003201280512205,-1.0436345750716507
0.012004801920768308,1.3177819505149126
0.01600640256102441,-1.1938698350182315
0.020008003201280513,0.6879247700357487
0.024009603841536616,-0.08991582649701116
0.028011204481792718,-0.7914949929257696
0.03201280512204882,1.6329878000226068
0.03601440576230493,-2.4210440646513556
0.040016006402561026,2.8869185876488532
0.044017607042817125,-2.918925290017819
0.04801920768307323,2.497637162593144
0.05202080832332934,-1.7412889164790364
0.056022408963585436,0.5954671002956329
0.060024009603841535,0.6811554353299955
0.06402561024409764,-1.8153169791794364
0.06802721088435375,3.04515283628066
0.07202881152460985,-3.7304088846911494
0.07603041216486595,3.9371505729385983
0.08003201280512205,-3.6847280164305127
0.08403361344537816,3.0138255838211245
0.08803521408563425,-2.069375857086832
0.09203681472589036,0.8572828601587414
0.09603841536614646,0.5004413021233344
0.10004001600640257,-1.5861329987902137
0.10404161664665867,2.5171640019542
0.10804321728691477,-3.198906341309518
0.11204481792717087,3.4375050391659174
0.11604641856742698,-3.365992101715545
0.12004801920768307,2.8651174679660487
0.12404961984793918,-2.199678055215479
0.12805122048819528,1.3777168748921902
0.13205282112845138,-0.6545000121864155
0.1360544217687075,-0.22017285090772884
0.1400560224089636,0.9044265091178545
0.1440576230492197,-1.42203506738445
0.1480592236894758,1.7523204121706013
0.1520608243297319,-2.1032651800002076
0.156062424969988,2.176695703809516
0.1600640256102441,-2.106296454812839
0.1640656262505002,2.0689385545077696
0.16806722689075632,-1.79896973242868
0.1720688275310124,1.4838181402527257
0.1760704281712685,-1.166295350479698
0.18007202881152462,0.4743952914199662
0.1840736294517807,0.06655872981440136
0.18807523009203683,-0.6567838209907577
0.19207683073229292,1.1868296295790748
0.19607843137254902,-1.7436551786575911
0.20008003201280514,2.1522811041818835
0.20408163265306123,-2.304963984829943
0.20808323329331735,2.321516803506043
0.21208483393357344,-2.11670827764625
0.21608643457382953,1.6672677261719668
0.22008803521408565,-1.016799561424452
0.22408963585434175,0.5128664700426264
0.22809123649459784,0.37213254759287034
0.23209283713485396,-0.9085104937805123
0.23609443777511005,1.3000734973985306
0.24009603841536614,-1.7337786394762156
0.24409763905562226,1.6850508350670568
0.24809923969587835,-1.6152016968084242
0.25210084033613445,1.399935103665571
0.25610244097639057,-1.0342951789021373
0.2601040416166467,0.6511952701407198
0.26410564225690275,-0.3981927913210689
0.26810724289715887,0.02278311508501281
0.272108843537415,0.09679663336167288
0.27611044417767105,-0.10670007583668939
0.2801120448179272,0.03330165095341975
0.2841136454581833,-0.1642253130192857
0.2881152460984394,0.10819729136238299
0.2921168467386955,-0.2695344994870072
0.2961184473789516,0.4760112961214573
0.3001200480192077,-0.7418478122699877
0.3041216486594638,1.1046507640898056
0.3081232492997199,-1.3347529525775894
0.312124849939976,1.654835727482669
0.3161264505802321,-1.7058813584416903
0.3201280512204882,1.519325478249418
0.32412965186074433,-1.2883350409947398
0.3281312525010004,0.7163449053796649
0.3321328531412565,-0.013352875322308298
0.33613445378151263,-0.7914287582691655
0.3401360544217687,1.500851272621401
0.3441376550620248,-2.033618356147091
0.34813925570228094,2.4830255508991526
0.352140856342537,-2.6280795655000553
0.3561424569827931,2.3385825039949872
0.36014405762304924,-1.859315312587468
0.36414565826330536,1.162826298586798
0.3681472589035614,-0.2774436931083763
0.37214885954381755,-0.4353251341019054
0.37615046018407367,1.1858049287058419
0.38015206082432973,-1.6420960061156442
0.38415366146458585,1.8686716765396012
0.38815526210484197,-1.886900355100176
0.39215686274509803,1.6822556587987627
0.39615846338535415,-1.3112063626813804
0.4001600640256103,0.874074225382752
0.40416166466586634,-0.6503498690961151
0.40816326530612246,0.21528862687221637
0.4121648659463786,-0.07443830157877221
0.4161664665866347,0.1428408763100967
0.42016806722689076,0.02536251661465734
0.4241696678671469,0.0579604364667477
0.428171268507403,-0.11539470912439014
0.43217286914765907,-0.029844860368467535
0.4361744697879152,0.2571719802929948
0.4401760704281713,-0.6695663452638276
0.44417767106842737,1.26475424356212
0.4481792717086835,-1.6168017918936248
0.4521808723489396,2.066700364640576
0.4561824729891957,-2.339525373025755
0.4601840736294518,2.359201739650518
0.4641856742697079,-1.9588808689215602
0.468187274909964,1.3466793151651613
0.4721888755502201,-0.37045910426208406
0.4761904761904762,-0.7364020940950916
0.4801920768307323,1.9632238545927219
0.4841936774709884,-2.9396286602619575
0.4881952781112445,3.6669880254457756
0.49219687875150064,-3.8013713371787268
0.4961984793917567,3.6425967692649066
0.5002000800320128,-3.0605967486057946
0.5042016806722689,1.876499257033417
0.508203281312525,-0.4021721504944971
0.5122048819527811,-0.895133681891096
0.5162064825930373,2.1991593844533686
0.5202080832332934,-3.3116414678618415
0.5242096838735495,3.7999106941545002
0.5282112845138055,-3.7958356228897947
0.5322128851540616,3.505173826992324
0.5362144857943177,-2.653067373252207
0.5402160864345739,1.4759369935028106
0.54421768707483,-0.30627873207520395
0.5482192877150861,-0.8522901727831652
0.5522208883553421,1.8366991589447839
0.5562224889955982,-2.4218531729603
0.5602240896358543,2.6059291217276463
0.5642256902761105,-2.5853022270137638
0.5682272909163666,1.889848753580301
0.5722288915566227,-1.2182392419182602
0.5762304921968788,0.4928855487813376
0.5802320928371348,0.18789431463062423
0.584233693477391,-0.7884684853637672
0.5882352941176471,1.0818852947014264
0.5922368947579032,-1.1215157503354085
0.5962384953981593,0.8356368624509048
0.6002400960384154,-0.5492143591674867
0.6042416966786714,0.04683227982956208
0.6082432973189276,0.28813774379991497
0.6122448979591837,-0.6238803280995097
0.6162464985994398,0.778723465600181
0.6202480992396959,-0.686948913040659
0.624249699879952,0.42062018244746746
0.6282513005202081,0.0017368077301468145
0.6322529011604642,-0.4485042137177669
0.6362545018007203,0.9375487287347031
0.6402561024409764,-1.221932374489963
0.6442577030812325,1.3419800287879808
0.6482593037214887,-1.504028671729412
0.6522609043617448,1.1596203714995357
0.6562625050020008,-0.7882838665185634
0.6602641056422569,0.23299907724629157
0.664265706282513,0.20181398798030784
0.6682673069227691,-0.7705231527630211
0.6722689075630253,1.1617219196767707
0.6762705082032814,-1.5206648517229473
0.6802721088435374,1.7152039889286532
0.6842737094837935,-1.7230411204148903
0.6882753101240496,1.623580065626167
0.6922769107643058,-1.4911821809911887
0.6962785114045619,1.103013191732795
0.700280112044818,-0.7042930697128444
0.704281712685074,0.18511666233967994
0.7082833133253301,0.3328767992479925
0.7122849139655862,-0.7825927919908648
0.7162865146058424,1.3153341298123864
0.7202881152460985,-1.7170916528382827
0.7242897158863546,2.0444716662172526
0.7282913165266107,-2.1695328820012243
0.7322929171668667,2.1941163278105513
0.7362945178071229,-1.9560384290883703
0.740296118447379,1.6284155164568748
0.7442977190876351,-0.894164804275003
0.7482993197278912,0.10242942883763378
0.7523009203681473,0.6864124718698766
0.7563025210084033,-1.6249481148656701
0.7603041216486595,2.3343615802612834
0.7643057222889156,-2.8555629691892825
0.7683073229291717,2.968712285984023
0.7723089235694278,-2.924548121845407
0.7763105242096839,2.3613730226505742
0.7803121248499401,-1.5174140995749177
0.7843137254901961,0.5575463115963138
0.7883153261304522,0.6003522922802577
0.7923169267707083,-1.6229764705388572
0.7963185274109644,2.449438817043786
0.8003201280512205,-2.9317217421249047
0.8043217286914767,2.9859192975390845
0.8083233293317327,-2.724140971791351
0.8123249299719888,2.0843418797376736
0.8163265306122449,-1.1149056606092724
0.820328131252501,0.08753430706053503
0.8243297318927572,0.8080976406902501
0.8283313325330133,-1.6740582680589156
0.8323329331732694,1.9042216061825132
0.8363345338135254,-2.1275255610032295
0.8403361344537815,1.9487134971646638
0.8443377350940376,-1.3134333211529818
0.8483393357342938,0.7230624971321645
0.8523409363745499,0.08003641799684402
0.856342537014806,-0.725536953878334
0.860344137655062,0.9934473943923122
0.8643457382953181,-1.308238945526248
0.8683473389355743,1.1445879815441171
0.8723489395758304,-0.6952779499451507
0.8763505402160865,0.239579617009388
0.8803521408563426,0.3769971155306456
0.8843537414965986,-0.8664057302284397
0.8883553421368547,1.3206818222565035
0.8923569427771109,-1.4199217464609983
0.896358543417367,1.2368305703188291
0.9003601440576231,-0.7108685088764762
0.9043617446978792,0.05532259917630911
0.9083633453381353,0.5759201695365654
0.9123649459783914,-1.1919490154634471
0.9163665466186475,1.621090851173319
0.9203681472589036,-1.8861295218878351
0.9243697478991597,1.843598893451017
0.9283713485394158,-1.3667001901086326
0.932372949179672,0.8532307376245412
0.936374549819928,-0.14973884471947183
0.9403761504601841,-0.7439029045079943
0.9443777511004402,1.2733189720868805
0.9483793517406963,-1.7314646445162327
0.9523809523809524,1.8646674624033654
0.9563825530212086,-1.736501503561982
0.9603841536614646,1.2889637420975135
0.9643857543017207,-0.7720369179549303
0.9683873549419768,0.046549623567513965
0.9723889555822329,0.3641147373595322
0.976390556222489,-0.8656807486569426
0.9803921568627452,1.0793054013538146
0.9843937575030013,-1.172975317306496
0.9883953581432573,0.8854260650400373
0.9923969587835134,-0.5147167204243657
0.9963985594237695,0.14973195892724578
1.0004001600640255,0.11708368312699077
1.0044017607042817,-0.37245252065133727
1.0084033613445378,0.4652323054470858
1.012404961984794,-0.36341111505950263
1.01640656262505,0.12140469882193594
1.0204081632653061,0.25877573643724877
1.0244097639055623,-0.5417780956697068
1.0284113645458184,0.8316787327792367
1.0324129651860745,-0.8791619540523807
1.0364145658263306,0.7898079663736406
1.0404161664665867,-0.4837350353597171
1.0444177671068429,0.158821659201276
1.048419367747099,0.5103812455059837
1.0524209683873549,-1.0818885236833455
1.056422569027611,1.5357604766372503
1.0604241696678671,-1.791881079730485
1.0644257703081232,1.7826083180568084
1.0684273709483794,-1.3439520978377142
1.0724289715886355,0.8040981844944612
1.0764305722288916,-0.20070968816261073
1.0804321728691477,-0.5033486561045547
1.0844337735094038,1.288275024593008
1.08843537414966,-1.7562677524913648
1.092436974789916,2.063587834464245
1.0964385754301722,-2.01557768675707
1.1004401760704283,1.7250487194334452
1.1044417767106842,-1.1964536604952676
1.1084433773509403,0.5810783235486798
1.1124449779911965,0.24424674795609125
1.1164465786314526,-0.8232982795219828
1.1204481792717087,1.308597783595443
1.1244497799119648,-1.6229665902013277
1.128451380552221,1.606824573945169
1.132452981192477,-1.5016938599864837
1.1364545818327332,1.200197372321726
1.1404561824729893,-0.6981103437505214
1.1444577831132454,0.23624934096614575
1.1484593837535015,0.2861032803269016
1.1524609843937577,-0.7791400299115767
1.1564625850340136,0.979664797809016
1.1604641856742697,-1.0673807701361921
1.1644657863145258,0.9774676295910015
1.168467386954782,-0.8203525319924466
1.172468987595038,0.5495268481007721
1.1764705882352942,-0.2507431514828693
1.1804721888755503,0.04878605499973784
1.1844737895158064,0.10449314855923997
1.1884753901560625,-0.34535282725862587
1.1924769907963186,0.40755867227241344
1.1964785914365748,-0.5041167485005638
1.2004801920768309,0.6126075949720763
1.2044817927170868,-0.5626754435375538
1.208483393357343,0.5625845725139
1.212484993997599,-0.47978983695748717
1.2164865946378551,0.3414716172785487
1.2204881952781113,-0.10022779416030858
1.2244897959183674,0.02138051600871261
1.2284913965586235,0.17494636564986155
1.2324929971988796,-0.4913590056920195
1.2364945978391357,0.758897460680786
1.2404961984793919,-1.0339027067245736
1.244497799119648,1.0846956494087963
1.248499399759904,-0.965900722848698
1.2525010004001602,0.7084918677636431
1.2565026010404161,-0.40096650544143175
1.2605042016806722,-0.20999684356121276
1.2645058023209284,0.6249817718151737
1.2685074029611845,-1.1653208529043582
1.2725090036014406,1.6948252197294311
1.2765106042416967,-1.8398217029377826
1.2805122048819528,1.6937476488212668
1.284513805522209,-1.3649004294831408
1.288515406162465,0.9076393666572377
1.2925170068027212,0.06441783435805448
1.2965186074429773,-0.850078285956296
1.3005202080832334,1.57192941063491
1.3045218087234896,-2.0801731784065276
1.3085234093637454,2.4431008202563023
1.3125250100040016,-2.318654656557122
1.3165266106442577,1.8769357612001252
1.3205282112845138,-1.1268327094580428
1.32452981192477,0.2837250821053918
1.328531412565026,0.7779142254683267
1.3325330132052822,-1.7261454319159906
1.3365346138455383,2.3907033616209046
1.3405362144857944,-2.6747437036528234
1.3445378151260505,2.657577204927453
1.3485394157663066,-2.0396559309691487
1.3525410164065628,1.2232154552035914
1.3565426170468189,-0.1410908564054572
1.3605442176870748,-0.891203517590783
1.364545818327331,1.8220049542661942
1.368547418967587,-2.4224325908463404
1.3725490196078431,2.7693413882450315
1.3765506202480993,-2.587108131068139
1.3805522208883554,1.8883723788600726
1.3845538215286115,-0.919010344528328
1.3885554221688676,-0.06276936491564379
1.3925570228091237,1.1400451463781622
1.3965586234493799,-1.9995198919002664
1.400560224089636,2.51065681522636
1.404561824729892,-2.6574876285015474
1.408563425370148,2.3873660752528005
1.4125650260104041,-1.633781688646208
1.4165666266506602,0.6326159889048448
1.4205682272909164,0.35812203735082554
1.4245698279311725,-1.436876090182253
1.4285714285714286,2.189650088662711
1.4325730292116847,-2.549774611740248
1.4365746298519408,2.641645471254313
1.440576230492197,-2.217429503775518
1.444577831132453,1.4961926386799547
1.4485794317727092,-0.5307592863510178
1.4525810324129653,-0.44623509595366384
1.4565826330532214,1.1804408525420373
1.4605842336934773,-1.9737208398819732
1.4645858343337335,2.3279844128572917
1.4685874349739896,-2.469370642919391
1.4725890356142457,2.0504961579043277
1.4765906362545018,-1.5352147579481212
1.480592236894758,0.6745056011341565
1.484593837535014,0.007520493086242683
1.4885954381752702,-0.698518563807368
1.4925970388155263,1.23956106134958
1.4965986394557824,-1.6419509088861677
1.5006002400960385,1.645980370314388
1.5046018407362947,-1.5336534257024168
1.5086034413765508,1.2237675803758217
1.5126050420168067,-0.9076057949731227
1.5166066426570628,0.3126328344090798
1.520608243297319,0.019421465493974124
1.524609843937575,-0.274546132699294
1.5286114445778312,0.3799289926087772
1.5326130452180873,-0.4169364788291057
1.5366146458583434,0.5732438970930283
1.5406162464985995,-0.45056265925521694
1.5446178471388556,0.47165775538525323
1.5486194477791118,-0.5040327346052161
1.5526210484193679,0.6684024915839675
1.556622649059624,-0.6219143264387555
1.5606242496998801,0.7616209082062037
1.564625850340136,-0.826029840615141
1.5686274509803921,0.6648475086767366
1.5726290516206483,-0.49466592437393686
1.5766306522609044,0.29820332672724015
1.5806322529011605,0.1391766783235398
1.5846338535414166,-0.4820834557678717
1.5886354541816727,0.8715275153097373
1.5926370548219289,-1.153173002546077
1.596638655462185,1.230872435195608
1.600640256102441,-1.4528597259596938
1.6046418567426972,1.114292005735774
1.6086434573829533,-0.7528951115100226
1.6126450580232095,0.42479676487892537
1.6166466586634654,0.07846081026682626
1.6206482593037215,-0.42385565798272284
1.6246498599439776,0.7829115659002099
1.6286514605842337,-0.997734016197334
1.6326530612244898,1.0765450338683986
1.636654661864746,-0.972690106490059
1.640656262505002,0.7334097681204313
1.6446578631452582,-0.39372757883282916
1.6486594637855143,0.12962999301068798
1.6526610644257704,0.11113215298630609
1.6566626650660266,-0.19330194838681686
1.6606642657062827,0.28703431009103025
1.6646658663465388,-0.14661010610102193
1.6686674669867947,-0.08917156244057814
1.6726690676270508,0.17280166225618443
1.676670668267307,-0.22696133425705856
1.680672268907563,0.2928446106778809
1.6846738695478192,-0.25674396270882144
1.6886754701880753,0.048134228918805325
1.6926770708283314,0.2551302405547271
1.6966786714685875,-0.5140285940792527
1.7006802721088436,0.7924940886143828
1.7046818727490998,-1.074924730298881
1.708683473389356,1.237156697523857
1.712685074029612,-1.116357829214618
1.716686674669868,0.8972415909065079
1.720688275310124,-0.34651184963806125
1.7246898759503801,-9.720201192696398e-05
1.7286914765906363,0.5458252550203213
1.7326930772308924,-1.0249706089717772
1.7366946778711485,1.3243260150442553
1.7406962785114046,-1.549462250228006
1.7446978791516607,1.4028500957570493
1.7486994797919169,-1.1785515090339305
1.752701080432173,0.725545045925839
1.756702681072429,-0.3818085698830298
1.7607042817126852,-0.06982400617485274
1.7647058823529413,0.35706927188200266
1.7687074829931972,-0.6076622128918251
1.7727090836334534,0.6921880505443773
1.7767106842737095,-0.6232146972035819
1.7807122849139656,0.43082479034271703
1.7847138855542217,-0.26088651001616964
1.7887154861944778,0.10574108587714441
1.792717086834734,-0.08975579057445562
1.79671868747499,0.14696272556560086
1.8007202881152462,-0.49645548623441604
1.8047218887555023,0.7957461922094182
1.8087234893957584,-1.0595597385846063
1.8127250900360146,1.2403121890991005
1.8167266906762707,-1.2522080595945684
1.8207282913165266,1.0972095455567556
1.8247298919567827,-0.5652936085224082
1.8287314925970388,0.003207804264686847
1.832733093237295,0.8125967067758989
1.836734693877551,-1.6464288379322123
1.8407362945178072,2.410090602008546
1.8447378951580633,-2.881337668698459
1.8487394957983194,3.024923645196079
1.8527410964385755,-2.848407198857642
1.8567426970788317,2.1908362294335904
1.8607442977190878,-1.115130766808576
1.864745898359344,-0.19677051612154758
1.8687474989996,1.4636225936983385
1.872749099639856,-2.6678058554266495
1.876750700280112,3.45935754981295
1.8807523009203682,-3.9419802756514404
1.8847539015606243,3.888849945977454
1.8887555022008804,-3.3720405886429012
1.8927571028411365,2.36039129305503
1.8967587034813926,-1.0284843040734117
1.9007603041216488,-0.37623630713775924
1.9047619047619049,1.669238991804669
1.908763505402161,-2.791356338887696
1.9127651060424171,3.403737221913109
1.9167667066826732,-3.6084636176666582
1.9207683073229291,3.1899023235729542
1.9247699079631853,-2.570880182745841
1.9287715086034414,1.5868892826962986
1.9327731092436975,-0.3806860445837273
1.9367747098839536,-0.5673249100716568
1.9407763105242097,1.478703678398794
1.9447779111644659,-1.9346798064943174
1.948779511804722,2.223823739352797
1.952781112444978,-1.960890467625078
1.9567827130852342,1.4802399097674266
1.9607843137254903,-0.8489500982599577
1.9647859143657465,0.1947544121064121
1.9687875150060026,0.4573221177694291
1.9727891156462585,-0.7924512319315238
1.9767907162865146,0.9024377434292669
1.9807923169267707,-0.8007991749508399
1.9847939175670268,0.475527715485777
1.988795518207283,0.08199490068535818
1.992797118847539,-0.46925832007335394
1.9967987194877952,0.8548079568957425
2.000800320128051,-1.0806702057140845
2.0048019207683074,1.079401391735594
2.0088035214085633,-0.9242486500818627
2.0128051220488197,0.47412224585331536
2.0168067226890756,-0.03796799095707251
2.020808323329332,-0.6635156944895917
2.024809923969588,1.2127917258740373
2.028811524609844,-1.7199708479202525
2.0328131252501,1.9573167488704741
2.0368147258903564,-1.9654088252121422
2.0408163265306123,1.8603495715226988
2.0448179271708686,-1.3803418817616813
2.0488195278111245,0.7645202140878098
2.0528211284513804,-0.12146781573603459
2.0568227290916368,-0.578943114820663
2.0608243297318927,1.093298670375329
2.064825930372149,-1.6245519263453119
2.068827531012405,1.9538646896313971
2.0728291316526612,-2.162688996814362
2.076830732292917,2.300749113181334
2.0808323329331735,-1.979041089123976
2.0848339335734294,1.7163764715784247
2.0888355342136857,-1.2576234121137488
2.0928371348539416,0.7448605585497844
2.096838735494198,-0.04684182073079342
2.100840336134454,-0.5479048242899162
2.1048419367747098,1.1960318065873499
2.108843537414966,-1.7412323053232934
2.112845138055222,2.2980682449456946
2.1168467386954783,-2.7784294584690863
2.1208483393357342,2.7960527039656564
2.1248499399759906,-2.740581042555655
2.1288515406162465,2.2882154113438142
2.132853141256503,-1.6723655759865566
2.1368547418967587,0.769304604515284
2.140856342537015,0.15312172998375034
2.144857943177271,-1.2905344709103557
2.1488595438175273,2.2122155803554127
2.152861144457783,-2.8642983724345488
2.156862745098039,3.371623696390536
2.1608643457382954,-3.491034750046565
2.1648659463785513,3.1513386259606673
2.1688675470188077,-2.4728521563589547
2.1728691476590636,1.5339045502485391
2.17687074829932,-0.3653248344887431
2.180872348939576,-0.6587200091121655
2.184873949579832,1.6126731434597208
2.188875550220088,-2.3323150387505094
2.1928771508603444,2.8286735889655645
2.1968787515006003,-2.9562155125927463
2.2008803521408566,2.569549738531022
2.2048819527811125,-1.926021659485125
2.2088835534213684,1.218629872062072
2.212885154061625,-0.42248178477634696
2.2168867547018807,-0.194762187182841
2.220888355342137,0.7333000791388742
2.224889955982393,-1.0807846849272265
2.2288915566226493,1.1224206988257974
2.232893157262905,-0.9786297891892417
2.2368947579031615,0.6345315711158809
2.2408963585434174,-0.35153571638153897
2.2448979591836737,0.10798987390319773
2.2488995598239296,0.05089439354345515
2.252901160464186,0.08737789602506021
2.256902761104442,-0.32442953794083235
2.2609043617446978,0.6075375275456747
2.264905962384954,-0.9542370168996327
2.26890756302521,1.3671886395896458
2.2729091636654664,-1.5558941202369594
2.2769107643057223,1.403248299581008
2.2809123649459786,-1.1495596919115063
2.2849139655862345,0.5174454124822511
2.288915566226491,0.18029729846532963
2.2929171668667467,-1.0504781658575406
2.296918767507003,1.8042908923226746
2.300920368147259,-2.4636942354701823
2.3049219687875153,2.740389035675855
2.308923569427771,-2.8413764558619405
2.312925170068027,2.3895272454842704
2.3169267707082835,-1.6970217467447066
2.3209283713485394,0.86846867325935
2.3249299719887957,0.11738155187998182
2.3289315726290516,-1.1300211338034025
2.332933173269308,1.837445069078424
2.336934773909564,-2.3792156248053047
2.34093637454982,2.6206840653852006
2.344937975190076,-2.504634135881765
2.3489395758303324,2.0780168858825707
2.3529411764705883,-1.4654549632376275
2.356942777110844,0.8061149696659061
2.3609443777511006,-0.11212770924066964
2.3649459783913565,-0.4168880482040158
2.368947579031613,0.7907492574466338
2.3729491796718687,-0.8484819440072765
2.376950780312125,0.7700337139517469
2.380952380952381,-0.74247105284018
2.3849539815926373,0.7046530364130069
2.388955582232893,-0.5264463495469034
2.3929571828731495,0.4857362537411733
2.3969587835134054,-0.5186991622792867
2.4009603841536618,0.848003068674093
2.4049619847939177,-1.0816239150315803
2.4089635854341735,1.4571547082008125
2.41296518607443,-1.5605943165988518
2.416966786714686,1.5644543786883474
2.420968387354942,-1.3529545019909661
2.424969987995198,0.8277690330628668
2.4289715886354544,-0.11324749536718609
2.4329731892757103,-0.8617419889790601
2.4369747899159666,1.819783508573499
2.4409763905562225,-2.606249853175416
2.444977991196479,3.162376915935442
2.4489795918367347,-3.449393508812567
2.452981192476991,3.2501169893205195
2.456982793117247,-2.7049624073019607
2.460984393757503,1.8633252660838449
2.4649859943977592,-0.6765987061512673
2.468987595038015,-0.6572922488459428
2.4729891956782715,1.9762271752743423
2.4769907963185274,-2.942764660311646
2.4809923969587837,3.5787942932956542
2.4849939975990396,-3.871861749557575
2.488995598239296,3.75010577667277
2.492997198879552,-3.156218811333357
2.496998799519808,2.2388021253862784
2.501000400160064,-1.2234036245131195
2.5050020008003204,0.04416966673606893
2.5090036014405763,1.0451913800259809
2.5130052020808322,-1.9514812562985264
2.5170068027210886,2.527348816019009
2.5210084033613445,-2.8851929859763903
2.525010004001601,2.757678720133031
2.5290116046418567,-2.5881738850782625
2.533013205282113,2.039452459332212
2.537014805922369,-1.4968895081613507
2.5410164065626253,0.8653420632720059
2.545018007202881,-0.3966658769137502
2.5490196078431375,-0.24027509578330686
2.5530212084833934,0.6449539455190003
2.5570228091236498,-1.0295852114611646
2.5610244097639057,1.2667608778984825
2.5650260104041616,-1.3504013950371256
2.569027611044418,1.52781308736804
2.573029211684674,-1.4340845011871046
2.57703081232493,1.4943683077136645
2.581032412965186,-1.350604229593462
2.5850340136054424,1.0629623765082694
2.5890356142456983,-0.8121823534770451
2.5930372148859546,0.4595122653055519
2.5970388155262105,-0.17653870767735913
2.601040416166467,-0.3336644504712519
2.6050420168067228,0.5917741953927373
2.609043617446979,-0.9475305378339742
2.613045218087235,1.06194302687397
2.617046818727491,-1.1780908710818172
2.6210484193677472,1.0501371022997565
2.625050020008003,-0.9127982838669012
2.6290516206482595,0.7253888765475616
2.6330532212885154,-0.39950817284096535
2.6370548219287717,0.28306362343899805
2.6410564225690276,-0.17503638621656503
2.645058023209284,0.20814396628084333
2.64905962384954,-0.27966681466674304
2.653061224489796,0.4589850160727199
2.657062825130052,-0.46254261322108586
2.6610644257703084,0.48222043142357474
2.6650660264105643,-0.3256804391053961
2.6690676270508202,-0.017515678282319147
2.6730692276910766,0.48400644268785736
2.6770708283313325,-1.0540773485117088
2.681072428971589,1.6014823968314762
2.6850740296118447,-2.21569007702929
2.689075630252101,2.618538234620233
2.693077230892357,-2.639183895625826
2.6970788315326133,2.421942660709795
2.701080432172869,-1.7413881648916105
2.7050820328131255,0.79430834921449
2.7090836334533814,0.3093052626197497
2.7130852340936378,-1.530810179520664
2.7170868347338937,2.794340053548089
2.7210884353741496,-3.6819813571624183
2.725090036014406,4.313059237229722
2.729091636654662,-4.34525907074043
2.733093237294918,3.844446840933373
2.737094837935174,-2.8005379213329773
2.7410964385754304,1.4678094013822562
2.7450980392156863,0.08834928567690878
2.7490996398559426,-1.7137781076342007
2.7531012404961985,3.209486499968682
2.757102841136455,-4.167706033562671
2.7611044417767108,4.557431118934929
2.765106042416967,-4.5250630203758115
2.769107643057223,4.006581669689678
2.773109243697479,-2.8638379456214906
2.7771108443377353,1.4655319373542792
2.781112444977991,0.05063169368102888
2.7851140456182475,-1.2738832758539866
2.7891156462585034,2.3545541201110263
2.7931172468987597,-3.0934294551098205
2.7971188475390156,3.3729915157302934
2.801120448179272,-3.0615813948295343
2.805122048819528,2.564843897340998
2.809123649459784,-1.7207556928410868
2.81312525010004,0.9527765348046061
2.817126850740296,-0.06126469088367842
2.8211284513805523,-0.4402735260454403
2.8251300520208082,0.8816539673334287
2.8291316526610646,-1.0214993005474156
2.8331332533013205,0.9245818053362231
2.837134853941577,-0.6402335009224885
2.8411364545818327,0.3406755614426727
2.845138055222089,-0.07671526099241392
2.849139655862345,0.06422277139676218
2.8531412565026013,-0.15296604252168147
2.857142857142857,0.31093824817605015
2.8611444577831135,-0.5268940299526683
2.8651460584233694,0.9618186507173574
2.8691476590636253,-1.2550111531270354
2.8731492597038817,1.3536375270134642
2.8771508603441376,-1.397672029220838
2.881152460984394,1.1116789319864442
2.88515406162465,-0.6694846786583011
2.889155662264906,0.08152732840076951
2.893157262905162,0.7156212323590367
2.8971588635454184,-1.2624343852558293
2.9011604641856743,1.7702741297687574
2.9051620648259306,-2.170262948553448
2.9091636654661865,2.224496590697797
2.913165266106443,-2.1333139377077326
2.917166866746699,1.6416059893096362
2.9211684673869547,-1.0854898880014714
2.925170068027211,0.3140665124172645
2.929171668667467,0.20920536131377143
2.9331732693077233,-0.8948844077309208
2.937174869947979,1.2954200185716156
2.9411764705882355,-1.5775426600528468
2.9451780712284914,1.4884435811854921
2.9491796718687477,-1.4375232194800276
2.9531812725090036,1.3043919991110537
2.95718287314926,-1.1260762100661004
2.961184473789516,0.8122417544489462
2.9651860744297722,-0.5826670910719988
2.969187675070028,0.3735545311623043
2.973189275710284,-0.3056035140849646
2.9771908763505404,0.13798764435055244
2.9811924769907963,-0.04183501420756012
2.9851940776310526,-0.19980337325608716
2.9891956782713085,0.45497325598094235
2.993197278911565,-0.8010950858736787
2.9971988795518207,1.2479894816813675
3.001200480192077,-1.5330328148218726
3.005202080832333,1.8102712975615602
3.0092036814725893,-1.8967512606680041
3.013205282112845,1.882980692181257
3.0172068827531016,-1.4913645613920612
3.0212084833933575,1.1037357852909253
3.0252100840336134,-0.3750559221637489
3.0292116846738697,-0.2935512621211025
3.0332132853141256,1.1229537603418884
3.037214885954382,-1.7576104995899502
3.041216486594638,2.323180972525245
3.045218087234894,-2.5541973360934795
3.04921968787515,2.4400517898846346
3.0532212885154064,-2.265177997381668
3.0572228891556623,1.7507183192195992
3.0612244897959187,-1.0952003846339582
3.0652260904361746,0.30010662400467036
3.069227691076431,0.29404852579285773
3.073229291716687,-1.0219362871799795
3.0772308923569427,1.5309092343504058
3.081232492997199,-1.7326497352417034
3.085234093637455,1.8449333490227016
3.0892356942777113,-1.8619843836791061
3.093237294917967,1.6911166040729069
3.0972388955582235,-1.4721072370599189
3.1012404961984794,1.1759955732007379
3.1052420968387358,-0.9470752133366637
3.1092436974789917,0.5158167541687815
3.113245298119248,-0.20364168923228587
3.117246898759504,-0.14907089802742188
3.1212484993997602,0.5134652805910571
3.125250100040016,-0.806963802627574
3.129251700680272,1.3423536579822093
3.1332533013205284,-1.6680492196519516
3.1372549019607843,1.9421869075674738
3.1412565026010406,-2.0111317013178454
3.1452581032412965,1.9716349931147574
3.149259703881553,-1.7795995269068596
3.1532613045218087,1.260006507741817
3.157262905162065,-0.6881114990382327
3.161264505802321,-0.09910449490540965
3.1652661064425773,0.947060711012515
3.1692677070828332,-1.7879450499820875
3.1732693077230896,2.3369331087576852
3.1772709083633455,-2.6911739514699633
3.1812725090036014,2.604187334527142
3.1852741096438577,-2.267723774173402
3.1892757102841136,1.6615180825207498
3.19327731092437,-0.8495860524358071
3.197278911564626,-0.1252874298659183
3.201280512204882,0.9348300981144312
3.205282112845138,-1.5853301140090597
3.2092837134853944,2.1681958202980414
3.2132853141256503,-2.19296084666177
3.2172869147659067,1.9572479663576587
3.2212885154061626,-1.4444648292275963
3.225290116046419,0.6387697593619529
3.229291716686675,0.10250571898854843
3.2332933173269307,-0.8270975584989056
3.237294917967187,1.2071417500814545
3.241296518607443,-1.4784986075851558
3.2452981192476993,1.3188755439643778
3.249299719887955,-0.8862562605387584
3.2533013205282115,0.16168032464158455
3.2573029211684674,0.5465539435100205
3.2613045218087238,-1.1404622215485825
3.2653061224489797,1.6485413225253516
3.269307723089236,-1.737283538623106
3.273309323729492,1.5919241654007208
3.2773109243697482,-0.9826327881771091
3.281312525010004,0.17176357641765505
3.28531412565026,0.8039343649711949
3.2893157262905164,-1.769456585592838
3.2933173269307723,2.527263389969554
3.2973189275710286,-2.871278589559539
3.3013205282112845,2.883443409004466
3.305322128851541,-2.4576005104992222
3.3093237294917968,1.4857409015115408
3.313325330132053,-0.41121855663973583
3.317326930772309,-0.892817160223668
3.3213285314125653,2.082976793551645
3.3253301320528212,-3.0538140604913306
3.3293317326930776,3.5637227441221357
3.3333333333333335,-3.7240725529685172
3.3373349339735894,3.2409357640319842
3.3413365346138457,-2.437437114515508
3.3453381352541016,1.2839200966022883
3.349339735894358,-0.07156160504952157
3.353341336534614,-1.2449147987657994
3.35734293717487,2.222307202770486
3.361344537815126,-3.0306408193385708
3.3653461384553824,3.3615833589745083
3.3693477390956383,-3.305588461666631
3.3733493397358947,2.7196725943402593
3.3773509403761506,-1.8820383145174189
3.3813525410164065,0.865659549103523
3.385354141656663,-0.004744824068048154
3.3893557422969187,-0.8165975229445424
3.393357342937175,1.4634361870217991
3.397358943577431,-1.9557579883195713
3.4013605442176873,2.068687872772135
3.405362144857943,-2.0045068251326366
3.4093637454981995,1.6638679981843911
3.4133653461384554,-1.1605964898110255
3.417366946778712,0.7534027591246212
3.4213685474189677,-0.27953732872948767
3.425370148059224,-0.019981626800885062
3.42937174869948,0.40248367715126293
3.433373349339736,-0.6261986299441391
3.437374949979992,0.8091601514913302
3.441376550620248,-0.7237422281619095
3.4453781512605044,0.8871243341508366
3.4493797519007603,-0.7328722987670988
3.4533813525410166,0.6964125629340926
3.4573829531812725,-0.6647911537500526
3.461384553821529,0.4672936271685438
3.4653861544617848,-0.4703608531275518
3.469387755102041,0.193784633188502
3.473389355742297,-0.04594066976687376
3.4773909563825534,-0.20791593191844354
3.4813925570228093,0.32014989851313685
3.485394157663065,-0.5752338712823112
3.4893957583033215,0.6715415684296465
3.4933973589435774,-0.6516394505856309
3.4973989595838337,0.5482710697533406
3.5014005602240896,-0.2925520693173132
3.505402160864346,0.07700344377820853
3.509403761504602,0.13782163778316142
3.513405362144858,-0.40090494870146415
3.517406962785114,0.4621086715757552
3.5214085634253705,-0.49101613256024257
3.5254101640656264,0.31231722960371033
3.5294117647058827,-0.1076952204851822
3.5334133653461386,-0.28634577948508216
3.5374149659863945,0.6407703785411489
3.541416566626651,-0.8415719357140852
3.5454181672669067,0.9713771001235375
3.549419767907163,-0.8898536881547756
3.553421368547419,0.6857325456602512
3.5574229691876753,-0.24387530686951572
3.561424569827931,-0.27829947898248036
3.5654261704681876,0.7809091201859034
3.5694277711084434,-1.1645438017758236
3.5734293717487,1.5546368917036222
3.5774309723889557,-1.7985130199028205
3.581432573029212,1.5732666766094627
3.585434173669468,-1.207718692969635
3.589435774309724,0.5260375442788837
3.59343737494998,0.1948140304414293
3.597438975590236,-0.8405639468457974
3.6014405762304924,1.4414773634389983
3.6054421768707483,-1.905260737294325
3.6094437775110046,1.9836214171207749
3.6134453781512605,-1.8681226757940315
3.617446978791517,1.4202141995718112
3.621448579431773,-0.8741016817644355
3.625450180072029,0.1579893598695043
3.629451780712285,0.5684516199501317
3.6334533813525414,-1.1907738565748953
3.6374549819927973,1.5872829314763583
3.641456582633053,-1.7068546156412103
3.6454581832733095,1.601520458713493
3.6494597839135654,-1.0386878035868954
3.6534613845538217,0.5923514618432004
3.6574629851940776,-0.07970213398967262
3.661464585834334,-0.4223921883668409
3.66546618647459,0.7173516769354817
3.6694677871148462,-1.0128613716754593
3.673469387755102,0.8182633944153113
3.6774709883953585,-0.5774395588460439
3.6814725890356144,0.25225342553438856
3.6854741896758707,0.08929682060213133
3.6894757903161266,-0.3648642696896009
3.6934773909563825,0.6024967322425158
3.697478991596639,-0.5262586320858682
3.7014805922368947,0.3403182181576077
3.705482192877151,-0.05382474672976309
3.709483793517407,-0.38219777293678153
3.7134853941576633,0.8208830804255971
3.717486994797919,-1.070384925906225
3.7214885954381756,1.1162002365011765
3.7254901960784315,-1.0051097837863052
3.729491796718688,0.6147784678245066
3.7334933973589437,-0.054949110586614516
3.7374949979992,-0.3604142481785525
3.741496598639456,1.0396674797473329
3.745498199279712,-1.4425870368274167
3.749499799919968,1.6552982355967523
3.753501400560224,-1.6143184697663333
3.7575030012004804,1.2234634207549993
3.7615046018407363,-0.6557681727324541
3.7655062024809927,-0.17225560410990995
3.7695078031212486,0.8433409323624113
3.773509403761505,-1.4437558080948492
3.777511004401761,1.852714913449458
3.781512605042017,-2.006435069261868
3.785514205682273,1.7137693466095012
3.7895158063225294,-1.19207972903766
3.7935174069627853,0.34940738205655486
3.797519007603041,0.3370712172726446
3.8015206082432975,-1.1790644509379442
3.8055222088835534,1.9553988438898422
3.8095238095238098,-2.1678211782187913
3.8135254101640657,2.204056163108315
3.817527010804322,-1.7284568900924837
3.821528611444578,1.0922639682683981
3.8255302120848342,-0.26089229683904513
3.82953181272509,-0.7191552425815426
3.8335334133653465,1.4992937539761415
3.8375350140056024,-2.1070654545364587
3.8415366146458583,2.2948491191504545
3.8455382152861146,-2.1645505377933647
3.8495398159263705,1.7843192312483982
3.853541416566627,-0.9879868848499064
3.8575430172068828,0.17329312748519327
3.861544617847139,0.7812526506973985
3.865546218487395,-1.520939937985807
3.8695478191276513,2.0886392029876384
3.8735494197679072,-2.2577443162994606
3.8775510204081636,2.183069415772069
3.8815526210484195,-1.725964984367308
3.885554221688676,0.9923882193905481
3.8895558223289317,-0.26834434511146255
3.8935574229691876,-0.4702744989757346
3.897559023609444,1.2431310088510656
3.9015606242497,-1.5428856949458631
3.905562224889956,1.7999140873542934
3.909563825530212,-1.8047827432018368
3.9135654261704684,1.4822210908199775
3.9175670268107243,-1.0515758390977001
3.9215686274509807,0.5850925497579637
3.9255702280912366,0.1424747809905042
3.929571828731493,-0.4677957481442985
3.933573429371749,0.8386234363143631
3.937575030012005,-0.915192017375784
3.941576630652261,1.202390502321405
3.945578231292517,-1.0919370296750448
3.9495798319327733,0.8498583732307419
3.953581432573029,-0.5841084925112885
3.9575830332132855,0.3381165709439766
3.9615846338535414,-0.12973483843196262
3.9655862344937978,0.013252870069804051
3.9695878351340537,0.23334734387563288
3.97358943577431,-0.44503835576839934
3.977591036414566,0.5599193380061664
3.9815926370548222,-0.6726728278827111
3.985594237695078,0.7174042892090035
3.9895958383353345,-0.6393410689236
3.9935974389755904,0.4239868727219964
3.9975990396158463,-0.32996659159335257
4.001600640256102,0.09688928952920842
4.0056022408963585,0.24663952172091647
4.009603841536615,-0.5158418040051146
4.013605442176871,0.7466866880017102
4.017607042817127,-0.8426902685865694
4.021608643457383,0.9084636253977337
4.025610244097639,-0.8471391589637628
4.029611844737896,0.619347790377734
4.033613445378151,-0.17122842445827913
4.0376150460184075,-0.3958794001279482
4.041616646658664,0.767818072059402
4.04561824729892,-1.2733051935238189
4.049619847939176,1.6689405467079943
4.053621448579432,-1.7021731202151904
4.057623049219688,1.4849288285605609
4.061624649859944,-1.0349492640141384
4.0656262505002,0.4675451120610634
4.069627851140456,0.4576150609401456
4.073629451780713,-1.259420423897541
4.077631052420968,2.0563008902330764
4.081632653061225,-2.5099285569772927
4.085634253701481,2.661542030947379
4.089635854341737,-2.4270552488999715
4.093637454981993,1.7549818274100093
4.097639055622249,-0.969822639413736
4.101640656262505,-0.19488431812970647
4.105642256902761,1.3007914529183036
4.109643857543017,-2.206736741565878
4.1136454581832735,3.0081815505515523
4.11764705882353,-3.322526480367006
4.121648659463785,3.152956294568951
4.125650260104042,-2.599132258757687
4.129651860744298,1.5789608858557171
4.133653461384554,-0.48122386075175466
4.13765506202481,-0.7512194311567721
4.141656662665066,1.900673017148086
4.1456582633053225,-2.719800145158008
4.149659863945578,3.1508371105878923
4.153661464585834,-3.110039998217913
4.157663065226091,2.6216205845363465
4.161664665866347,-1.7702774465306987
4.165666266506602,0.7348644226468334
4.169667867146859,0.23433560567790337
4.173669467787115,-1.113451090359221
4.1776710684273715,1.8100931847089472
4.181672669067627,-2.1293175463768015
4.185674269707883,2.1817723175797212
4.18967587034814,-1.7970933851242787
4.193677470988396,1.2332551402886875
4.197679071628651,-0.5527614464787872
4.201680672268908,-0.11569884512786886
4.205682272909164,0.5416317200275588
4.2096838735494195,-0.7920660875002034
4.213685474189676,0.928474653792515
4.217687074829932,-0.7286728187072337
4.221688675470189,0.18855362095489872
4.225690276110444,0.10852978877225505
4.2296918767507,-0.37124455229860326
4.233693477390957,0.6830877573522508
4.237695078031213,-0.7616287084925325
4.2416966786714685,0.6300747340613588
4.245698279311725,-0.3084720849507985
4.249699879951981,-0.19937228077607683
4.253701480592237,0.6161019793657555
4.257703081232493,-1.160921287610427
4.261704681872749,1.4648013848801622
4.265706282513006,-1.4885773791444374
4.269707883153261,1.393908656216286
4.2737094837935174,-0.8977989073232777
4.277711084433774,0.4871764650791276
4.28171268507403,0.16285826264346714
4.285714285714286,-0.8250933685802766
4.289715886354542,1.3997305752142917
4.293717486994798,-1.6991584241412374
4.297719087635055,1.7549871419178809
4.30172068827531,-1.488765252452628
4.305722288915566,1.1575218284279154
4.309723889555823,-0.6453743226525962
4.313725490196078,0.16930918362485498
4.3177270908363345,0.30664008436295
4.321728691476591,-0.7423046198594178
4.325730292116847,0.866845471809849
4.329731892757103,-0.9572923448042391
4.333733493397359,0.8164885651954139
4.337735094037615,-0.5996085737384534
4.341736694677872,0.41389693268057576
4.345738295318127,-0.1397959812026346
4.3497398959583835,0.08468151008266388
4.35374149659864,-0.146493949426888
4.357743097238895,0.29477323407643974
4.361744697879152,-0.44334445582797744
4.365746298519408,0.5897754601642078
4.369747899159664,-0.7630905918711844
4.37374949979992,0.8502702835944952
4.377751100440176,-0.54710387953478
4.3817527010804325,0.37083177485797336
4.385754301720689,0.09842843476318018
4.389755902360944,-0.6026445527198263
4.393757503001201,1.1873348207870882
4.397759103641457,-1.5839629771760093
4.401760704281713,1.9302063781121352
4.405762304921969,-2.0114339163242416
4.409763905562225,1.6828880233500172
4.413765506202481,-1.3250619573497204
4.417767106842737,0.7764159268692129
4.421768707482993,-0.1568273499741109
4.42577030812325,-0.6591204855810585
4.429771908763506,1.3817880316751712
4.433773509403761,-1.952729822954195
4.437775110044018,2.20476389129123
4.441776710684274,-2.1667229343261383
4.44577831132453,2.1327129294143785
4.449779911964786,-1.7751166821806752
4.453781512605042,1.2437633226645097
4.4577831132452985,-0.546836187880092
4.461784713885554,-0.032783931580393125
4.46578631452581,0.5575192265355176
4.469787915166067,-1.0976418248811937
4.473789515806323,1.4293490126154123
4.4777911164465785,-1.6053814667280024
4.481792717086835,1.7739686984117107
4.485794317727091,-1.819116069982467
4.4897959183673475,1.7875982210816646
4.493797519007603,-1.5205692690542523
4.497799119647859,1.3058085788065577
4.501800720288116,-0.9234718862238123
4.505802320928372,0.49619623882621716
4.509803921568627,-0.0012640750591189562
4.513805522208884,-0.5408870224267012
4.51780712284914,1.0608510571941585
4.5218087234893956,-1.644338504251711
4.525810324129652,2.1325790668479723
4.529811924769908,-2.359076569972634
4.533813525410165,2.325373696878738
4.53781512605042,-2.2851191874745234
4.541816726690676,1.8225703035126841
4.545818327330933,-1.1910142990416084
4.549819927971189,0.26457809632098306
4.5538215286114445,0.6673993463314112
4.557823129251701,-1.4757124080714201
4.561824729891957,2.2133852870243906
4.565826330532213,-2.572587075796235
4.569827931172469,2.7030690672630278
4.573829531812725,-2.275370868324844
4.577831132452982,1.8298395030310124
4.581832733093237,-1.1470003780754816
4.5858343337334935,0.21748673115006667
4.58983593437375,0.6323966315274775
4.593837535014006,-1.3381559893306116
4.597839135654262,1.7471913137147193
4.601840736294518,-1.7809795947868539
4.605842336934774,1.614910114364432
4.609843937575031,-1.0628011400988673
4.613845538215286,0.3263689837101704
4.617847138855542,0.2383059402759471
4.621848739495799,-0.7055934433700186
4.625850340136054,1.0294227275239494
4.629851940776311,-1.0182716896273982
4.633853541416567,0.7881635419532315
4.637855142056823,-0.20777011746149165
4.641856742697079,-0.5023258797959278
4.645858343337335,1.1431965944883502
4.649859943977591,-1.7278668715448957
4.653861544617848,2.087782349308472
4.657863145258103,-1.9894822791417286
4.6618647458983595,1.5909967303948793
4.665866346538616,-0.8566561573907292
4.669867947178871,-0.20382819304562422
4.673869547819128,1.4232035453887188
4.677871148459384,-2.408961297152679
4.68187274909964,3.219240128150794
4.685874349739896,-3.740240776548818
4.689875950380152,3.6881568864450487
4.6938775510204085,-3.0386822653648156
4.697879151660665,1.8687213091428168
4.70188075230092,-0.5366293098276694
4.705882352941177,-0.8832923836749581
4.709883953581433,2.242137123953763
4.713885554221688,-3.4750706474965587
4.717887154861945,4.239081241759292
4.721888755502201,-4.341939502241986
4.7258903561424574,4.05394084894521
4.729891956782713,-3.2059919527364693
4.733893557422969,2.138927839157305
4.737895158063226,-0.7541760467096684
4.741896758703482,-0.750200372206757
4.745898359343737,2.0030207978390373
4.749899959983994,-2.838897762805978
4.75390156062425,3.4050262805627747
4.757903161264506,-3.646017121685679
4.761904761904762,3.2891824644958807
4.765906362545018,-2.6175305865845133
4.7699079631852745,1.9547023921734488
4.77390956382553,-0.9817828485750562
4.777911164465786,0.16289052900553655
4.781912765106043,0.523862295439331
4.785914365746299,-1.0924246120138006
4.7899159663865545,1.5207524004419257
4.793917567026811,-1.6948759895995253
4.797919167667067,1.6601512659936726
4.8019207683073235,-1.603833647164275
4.805922368947579,1.4171218049919232
4.809923969587835,-1.3189440548214038
4.813925570228092,1.1981601807501903
4.817927170868347,-1.0119355992880887
4.821928771508603,0.7461772684777046
4.82593037214886,-0.46889332026079866
4.829931972789116,0.2572593132067418
4.833933573429372,0.11923954249303108
4.837935174069628,-0.42678007788837147
4.841936774709884,0.844586866474799
4.845938375350141,-1.1651891095346267
4.849939975990396,1.5685615101278574
4.853941576630652,-1.6527447365169008
4.857943177270909,1.646017117465704
4.861944777911165,-1.393684116230016
4.8659463785514205,1.2630263736851373
4.869947979191677,-0.8413077141100423
4.873949579831933,0.4547079947370901
4.877951180472189,0.19412172148985513
4.881952781112445,-0.4720376660603437
4.885954381752701,0.8128353231477342
4.889955982392958,-1.024488857239098
4.893957583033213,1.1991679343924249
4.8979591836734695,-0.986276684062658
4.901960784313726,1.0014155873170933
4.905962384953982,-0.8945031951172789
4.909963985594238,0.7412111946821609
4.913965586234494,-0.8285809502450335
4.91796718687475,0.6576619223052578
4.921968787515006,-0.6531851217411484
4.925970388155262,0.627854647215421
4.9299719887955185,-0.642519105304845
4.933973589435775,0.32626260114542627
4.93797519007603,-0.09534900155025201
4.941976790716287,-0.26219849352644564
4.945978391356543,0.8928249875342338
4.949979991996799,-1.2993860375683974
4.953981592637055,1.8606270246073038
4.957983193277311,-2.124764179956955
4.961984793917567,2.341140104098992
4.965986394557824,-2.2999537408370694
4.969987995198079,1.9150730625873293
4.9739895958383356,-1.2499491141813281
4.977991196478592,0.4400790326499933
4.981992797118847,0.589870044042111
4.985994397759104,-1.4858437932359732
4.98999599839936,2.2398900132487345
4.993997599039616,-2.674344813227382
4.997999199679872,3.0299821289040336
5.002000800320128,-2.935374126639031
5.0060024009603845,2.5570893684827456
5.010004001600641,-1.8096692851706875
5.014005602240896,1.0020073663579419
5.018007202881153,-0.024649526291342996
5.022008803521409,-0.7278108704404249
5.0260104041616644,1.4262596867067627
5.030012004801921,-1.8585140952669414
5.034013605442177,1.9761960760889243
5.0380152060824335,-2.0914398914791303
5.042016806722689,1.9530989879132195
5.046018407362945,-1.4831532526396132
5.050020008003202,1.3016559784930606
5.054021608643458,-0.8519730320786149
5.058023209283713,0.5900353729616217
5.06202480992397,-0.33713329073810977
5.066026410564226,0.188996865208419
5.070028011204482,-0.1421965783324985
5.074029611844738,-0.118262697417247
5.078031212484994,0.3347623679277558
5.082032813125251,-0.7703172076164649
5.086034413765506,1.2985902113459915
5.090036014405762,-1.7074008137019663
5.094037615046019,2.1499280518434696
5.098039215686275,-2.4006424651440184
5.1020408163265305,2.657123644441371
5.106042416966787,-2.449918082414573
5.110044017607043,1.9066807862976547
5.1140456182472995,-1.1322889397863072
5.118047218887555,0.1634908367350116
5.122048819527811,1.0751007558827241
5.126050420168068,-2.146461183562187
5.130052020808323,3.0367446282404376
5.1340536214485795,-3.6097894568465714
5.138055222088836,3.951335033703824
5.142056822729092,-3.6353036911860785
5.146058423369348,2.941969074295564
5.150060024009604,-1.823429692307457
5.15406162464986,0.543646682358561
5.158063225290117,0.7808928730621859
5.162064825930372,-2.1357025698108028
5.166066426570628,2.957211975601668
5.170068027210885,-3.520670998466097
5.17406962785114,3.5651771370100604
5.178071228491397,-3.2091418195076056
5.182072829131653,2.404480554653776
5.186074429771909,-1.3573673729581095
5.190076030412165,0.2959382412644115
5.194077631052421,0.5925141007928029
5.198079231692677,-1.4104948838823022
5.202080832332934,1.8108839406885187
5.206082432973189,-1.8910842675089015
5.2100840336134455,1.6477114429989739
5.214085634253702,-1.279631368097143
5.218087234893958,0.6095798793634453
5.222088835534214,-0.004007029980684126
5.22609043617447,-0.47114999867596663
5.230092036814726,0.5313717262072082
5.234093637454982,-0.5815929766092678
5.238095238095238,0.2347584066643598
5.2420968387354945,0.25932345875744983
5.246098439375751,-0.7289964054181209
5.250100040016006,1.2169049883813536
5.254101640656263,-1.4193833570511156
5.258103241296519,1.5211260732756604
5.262104841936775,-1.327706671825895
5.266106442577031,0.7067453781440999
5.270108043217287,-0.04845538710781666
5.274109643857543,-0.8263817754085203
5.278111244497799,1.7238053344632056
5.282112845138055,-2.2976971086482103
5.286114445778312,2.679813630010383
5.290116046418568,-2.9683415926469126
5.294117647058823,2.6987975318138844
5.29811924769908,-2.073468335773803
5.302120848339336,1.2678362096581064
5.306122448979592,-0.26537756482992125
5.310124049619848,-0.8026260229574673
5.314125650260104,1.6583431163658215
5.3181272509003605,-2.4671756952376307
5.322128851540617,2.8575405728440075
5.326130452180872,-3.155130240892306
5.330132052821129,3.014284298369104
5.334133653461385,-2.647467437819763
5.3381352541016405,1.976234601940393
5.342136854741897,-1.2109912739543753
5.346138455382153,0.4397814675349537
5.3501400560224095,0.3753172544767481
5.354141656662665,-1.266284147850294
5.358143257302921,1.8935237860950684
5.362144857943178,-2.4824035171670484
5.366146458583434,2.850572817156408
5.370148059223689,-2.8926303604308963
5.374149659863946,2.806774407772685
5.378151260504202,-2.566583332719311
5.382152861144458,2.0515050922918205
5.386154461784714,-1.3083258698243145
5.39015606242497,0.5043929266129805
5.394157663065227,0.5111243416070551
5.398159263705482,-1.3371588116479642
5.402160864345738,2.099549769690719
5.406162464985995,-2.8742052035446064
5.410164065626251,3.0941199147178287
5.4141656662665065,-3.2481472919124577
5.418167266906763,2.9379310471861344
5.422168867547019,-2.3110714214917847
5.4261704681872756,1.4629758813319764
5.430172068827531,-0.5547257602552368
5.434173669467787,-0.5102739458690294
5.438175270108044,1.4536787858716362
5.442176870748299,-2.287872233626038
5.4461784713885555,2.659841583506781
5.450180072028812,-2.7344435539899474
5.454181672669068,2.629335369969786
5.458183273309324,-1.993863056342085
5.46218487394958,1.2613453202838774
5.466186474589836,-0.613801029195763
5.470188075230093,-0.1626658633756499
5.474189675870348,0.8978930595147048
5.4781912765106044,-1.2454898859679921
5.482192877150861,1.3591932001778269
5.486194477791116,-1.2284956426360585
5.490196078431373,0.8423466962962263
5.494197679071629,-0.26855154853299146
5.498199279711885,-0.08229167315132149
5.502200880352141,0.5081343745430535
5.506202480992397,-0.5543449128722036
5.510204081632653,0.5347369963539624
5.51420568227291,-0.23492640712030488
5.518207282913165,-0.3967086632889694
5.5222088835534215,0.9862873513635007
5.526210484193678,-1.3843195350368764
5.530212084833934,1.7322306753897438
5.53421368547419,-1.9236749129100272
5.538215286114446,1.5420799112525014
5.542216886754702,-0.9786039803571834
5.546218487394958,0.19751350127145337
5.550220088035214,0.7750474194213055
5.5542216886754705,-1.7633897205676958
5.558223289315727,2.4839876105911918
5.562224889955982,-3.049713202765722
5.566226490596239,3.1496732549480417
5.570228091236495,-2.747032932056584
5.574229691876751,2.1226495174843727
5.578231292517007,-1.2150457793498477
5.582232893157263,9.763651054963546e-05
5.5862344937975195,1.0912463117163478
5.590236094437775,-1.9860478493540494
5.594237695078031,2.66387035407837
5.598239295718288,-3.0815733733123665
5.602240896358544,3.033482622497502
5.606242496998799,-2.55716861833891
5.610244097639056,1.929689614547073
5.614245698279312,-1.0273888928249222
5.618247298919568,0.23445485202753485
5.622248899559824,0.5252380641967779
5.62625050020008,-1.0316034008075803
5.630252100840337,1.4494638601006904
5.634253701480592,-1.552369628110193
5.638255302120848,1.463923875463481
5.642256902761105,-1.2522312286795718
5.646258503401361,1.024668560889294
5.6502601040416165,-0.6756811104476851
5.654261704681873,0.5275433312045406
5.658263305322129,-0.5224294476590731
5.6622649059623855,0.5573148556084884
5.666266506602641,-0.5909216243887822
5.670268107242897,0.5797869112966219
5.674269707883154,-0.5537512182133455
5.67827130852341,0.37471119752044196
5.6822729091636655,-0.04555152281818943
5.686274509803922,-0.38467655617174595
5.690276110444178,0.9989142305294233
5.694277711084434,-1.6172816684434237
5.69827931172469,2.0162974413206323
5.702280912364946,-2.230432124325547
5.706282513005203,2.382001363116253
5.710284113645458,-2.111582676175431
5.714285714285714,1.5345310739380633
5.718287314925971,-0.6943889197214853
5.722288915566227,-0.17922976849156524
5.7262905162064826,1.1633965024736377
5.730292116846739,-2.0279574930942643
5.734293717486995,2.658209453521783
5.738295318127251,-2.895750634586477
5.742296918767507,2.8605233607355287
5.746298519407763,-2.4251670587992136
5.75030012004802,1.6757321909300824
5.754301720688275,-0.8708050560739425
5.7583033213285315,-0.08321066865026047
5.762304921968788,0.941256588407375
5.766306522609044,-1.586746389721025
5.7703081232493,1.9547401688982502
5.774309723889556,-2.2189459602759416
5.778311324529812,2.1096931067482294
5.782312925170069,-1.754237547650804
5.786314525810324,1.2016878102422213
5.7903161264505805,-0.6746181403399802
5.794317727090837,0.12198074547125289
5.798319327731092,0.3508397056567905
5.802320928371349,-0.5600611641085428
5.806322529011605,0.7604802970077208
5.810324129651861,-0.8479219822688481
5.814325730292117,0.7481798242876245
5.818327330932373,-0.5820125413710655
5.822328931572629,0.4059944980676779
5.826330532212886,-0.32355094400234635
5.830332132853141,0.1774084125141164
5.834333733493398,-0.29457959867092376
5.838335334133654,0.218001817551419
5.842336934773909,-0.30599792692939504
5.846338535414166,0.4752176673297574
5.850340136054422,-0.40978714539227984
5.854341736694678,0.35238519225442294
5.858343337334934,-0.24629078814161137
5.86234493797519,0.10444984398843003
5.8663465386154465,0.015371294867336821
5.870348139255703,-0.3128933100335057
5.874349739895958,0.4326387133402914
5.878351340536215,-0.49543494598723387
5.882352941176471,0.5726670649925094
5.886354541816727,-0.6337693890168006
5.890356142456983,0.4844770571015275
5.894357743097239,-0.4730795974312424
5.8983593437374955,0.4184830539414197
5.902360944377751,-0.46215219238902744
5.906362545018007,0.4517674623885254
5.910364145658264,-0.41388601461876395
5.91436574629852,0.38263534830358
5.918367346938775,-0.33591585758939313
5.922368947579032,0.20824974860777534
5.926370548219288,0.1263830097715794
5.9303721488595444,-0.5822092523928676
5.9343737494998,0.9166702681169531
5.938375350140056,-1.3712118632732377
5.942376950780313,1.6416576603266444
5.946378551420568,-1.983609077807139
5.950380152060824,1.9165719726282915
5.954381752701081,-1.6750144763795913
5.958383353341337,1.1148012160392218
5.9623849539815925,-0.3751005374349893
5.966386554621849,-0.5474711335174175
5.970388155262105,1.5922492348988437
5.9743897559023615,-2.334403294281891
5.978391356542617,2.974356200232462
5.982392957182873,-3.224623776258769
5.98639455782313,3.1098886030843
5.990396158463386,-2.408138574480071
5.9943977591036415,1.571708640996151
5.998399359743898,-0.3288511793120379
6.002400960384154,-1.0427649885609411
6.00640256102441,2.1679490119589753
6.010404161664666,-3.0783133069767805
6.014405762304922,3.6157051226181047
6.018407362945179,-3.6313699026457527
6.022408963585434,3.143478271795769
6.02641056422569,-2.2502198904935162
6.030412164865947,1.0721139522886978
6.034413765506203,0.22110447379071474
6.038415366146459,-1.5659308942766463
6.042416966786715,2.4442284852201333
6.046418567426971,-3.0807863700285005
6.050420168067227,3.2174384970920977
6.054421768707483,-2.898567659132639
6.058423369347739,2.054415416539489
6.062424969987996,-1.0941265637484963
6.066426570628251,-0.12496577352426642
6.0704281712685075,1.1612676983956003
6.074429771908764,-1.9248488227497844
6.07843137254902,2.284548969640441
6.082432973189276,-2.239270591937932
6.086434573829532,1.9243865914427596
6.090436174469788,-1.2787687518360529
6.094437775110045,0.36153947572322825
6.0984393757503,0.5378522837000032
6.1024409763905565,-1.1844749925000457
6.106442577030813,1.7355898987903045
6.110444177671068,-1.7985213185139683
6.114445778311325,1.5941798479887619
6.118447378951581,-1.0881990607521905
6.122448979591837,0.45802720044974166
6.126450580232093,0.2171024702656031
6.130452180872349,-0.9522915338341691
6.1344537815126055,1.4189706961854107
6.138455382152862,-1.6932654115607206
6.142456982793117,1.6154061815390455
6.146458583433374,-1.3671513192145517
6.15046018407363,0.8250455201569251
6.154461784713885,-0.21102243543574165
6.158463385354142,-0.5319833221104308
6.162464985994398,1.0904962018617685
6.166466586634654,-1.460442921902115
6.17046818727491,1.5554648189212494
6.174469787915166,-1.4502808764004687
6.1784713885554225,1.136218355447433
6.182472989195679,-0.7228182789146982
6.186474589835934,0.1893642631030672
6.190476190476191,0.22649928930419633
6.194477791116447,-0.6644332612705895
6.1984793917567025,0.8016229521575082
6.202480992396959,-0.9277862940307624
6.206482593037215,0.8933953077587763
6.2104841936774715,-0.8042354357924871
6.214485794317727,0.6905412095190775
6.218487394957983,-0.4585052110749559
6.22248899559824,0.17787336666098258
6.226490596238496,-0.019469104213021143
6.230492196878751,0.07852289991500702
6.234493797519008,-0.017235119495445914
6.238495398159264,-0.04754408173012394
6.2424969987995205,0.034209858602140215
6.246498599439776,-0.13253553455105493
6.250500200080032,0.25748285185708486
6.254501800720289,-0.39432332544965376
6.258503401360544,0.5697956594388596
6.2625050020008,-0.7803378543689928
6.266506602641057,0.8003437443131768
6.270508203281313,-0.7662077986703554
6.2745098039215685,0.5988816738384323
6.278511404561825,-0.4263515740743612
6.282513005202081,-0.03867153532822385
6.286514605842338,0.38387903110542043
6.290516206482593,-0.7819549944824252
6.294517807122849,1.019091323283235
6.298519407763106,-1.149795755486797
6.302521008403361,1.097522731990778
6.3065226090436175,-1.035828309848055
6.310524209683874,0.6019366169484799
6.31452581032413,-0.11604904522395748
6.318527410964386,-0.2447342467449805
6.322529011604642,0.7214572130164734
6.326530612244898,-0.9103931412009002
6.330532212885155,1.0273382743813613
6.33453381352541,-1.0327610635098685
6.3385354141656665,0.8889468715212995
6.342537014805923,-0.49903353377821735
6.346538615446179,0.05488968250364919
6.350540216086435,0.2993894850888873
6.354541816726691,-0.7158598447859088
6.358543417366947,0.8680735444396064
6.362545018007203,-0.8253768753683985
6.366546618647459,0.6588269984940867
6.370548219287715,-0.35891419061765034
6.374549819927972,0.0985987761530158
6.378551420568227,0.23225532215293543
6.382553021208484,-0.46077828936085324
6.38655462184874,0.5549817207429872
6.390556222488996,-0.46601561911071593
6.394557823129252,0.4722671405048392
6.398559423769508,-0.315059960079313
6.402561024409764,-0.008884703519493432
6.40656262505002,0.14361578010799636
6.410564225690276,-0.3859524871954803
6.4145658263305325,0.37667018990313955
6.418567426970789,-0.2725974398256875
6.422569027611044,0.13734026128195523
6.426570628251301,0.09911904289950116
6.430572228891557,-0.31688441148744506
6.434573829531813,0.42759748821639326
6.438575430172069,-0.473577574174931
6.442577030812325,0.44423434684634966
6.4465786314525815,-0.10821346364640085
6.450580232092838,-0.24224341160908053
6.454581832733093,0.5828079264112204
6.45858343337335,-0.9677894584439084
6.462585034013606,1.0592050509247082
6.466586634653861,-1.1263589885281156
6.470588235294118,0.7613926860808733
6.474589835934374,-0.4403299271199361
6.47859143657463,-0.14555881163939544
6.482593037214886,0.7897523655197736
6.486594637855142,-1.4088072754943588
6.490596238495399,1.8470208899888034
6.494597839135655,-1.9474053495564576
6.49859943977591,1.6657268966670729
6.502601040416167,-1.368514165384161
6.506602641056423,0.5849192668705044
6.5106042416966785,0.24207723533326808
6.514605842336935,-1.1221242694129134
6.518607442977191,1.916293661944011
6.5226090436174475,-2.4670981313449456
6.526610644257703,2.564749733412636
6.530612244897959,-2.4295051804026033
6.534613845538216,1.745117422030796
6.538615446178472,-0.9191592013919253
6.5426170468187275,-0.1419679755839361
6.546618647458984,1.1014222681282184
6.55062024809924,-2.045851066947359
6.5546218487394965,2.582619718340572
6.558623449379752,-2.669798561424282
6.562625050020008,2.423228722667202
6.566626650660265,-1.7939197211437872
6.57062825130052,0.9416552379758303
6.574629851940776,0.26430549497737943
6.578631452581033,-1.1808291586278394
6.582633053221289,1.9314136368990789
6.586634653861545,-2.439972287333957
6.590636254501801,2.485234818167184
6.594637855142057,-2.1110330240284436
6.598639455782314,1.3016010273344008
6.602641056422569,-0.44643241999110883
6.606642657062825,-0.5542807245695069
6.610644257703082,1.338035130405037
6.614645858343337,-1.9351294829158077
6.6186474589835935,2.1836230215868677
6.62264905962385,-2.056478210988787
6.626650660264106,1.592579400396421
6.630652260904362,-0.7390056822476487
6.634653861544618,-0.1763931950492496
6.638655462184874,0.9374799390488698
6.642657062825131,-1.6824426021122947
6.646658663465386,2.2298809972873515
6.6506602641056425,-2.2442592861055517
6.654661864745899,1.9704218320174711
6.658663465386155,-1.4150434253219246
6.662665066026411,0.5946820915286706
6.666666666666667,0.2745848288514276
6.670668267306923,-1.094731918559642
6.674669867947179,1.7872342734048523
6.678671468587435,-2.2701327015331785
6.682673069227691,2.3238672841965538
6.686674669867948,-2.1384865006466622
6.690676270508203,1.687137495896302
6.69467787114846,-1.067318680962826
6.698679471788716,0.34873818678868135
6.702681072428972,0.4172956451484789
6.706682673069228,-1.0974384649875168
6.710684273709484,1.627710465551272
6.71468587434974,-1.8719547377641308
6.718687474989996,1.9734373127424851
6.722689075630252,-1.8781299219015248
6.7266906762705085,1.5602335926274404
6.730692276910765,-1.2235402430177207
6.73469387755102,0.8093948678606437
6.738695478191277,-0.241746744100159
6.742697078831533,-0.18110187191532393
6.746698679471789,0.720345257547041
6.750700280112045,-1.1111996416180197
6.754701880752301,1.4600304710471808
6.7587034813925575,-1.663793324164453
6.762705082032813,1.8341978835818666
6.766706682673069,-1.7102250582629182
6.770708283313326,1.651724651023118
6.774709883953582,-1.298862550495688
6.778711484593837,0.7872438853270319
6.782713085234094,-0.23798252538722864
6.78671468587435,-0.44122633474417233
6.7907162865146065,1.0663230438810534
6.794717887154862,-1.639867643252792
6.798719487795118,1.9909750088627716
6.802721088435375,-2.1575047211058735
6.806722689075631,1.9932053544208057
6.810724289715886,-1.7569309121788752
6.814725890356143,1.082505983876431
6.818727490996399,-0.5459146567547943
6.8227290916366545,-0.21526183665732368
6.826730692276911,1.0042967934235183
6.830732292917167,-1.4958493474344856
6.834733893557424,1.7619585561189426
6.838735494197679,-1.7944781032665575
6.842737094837935,1.5879832091978503
6.846738695478192,-1.232087972170741
6.850740296118448,0.6475338163816664
6.8547418967587035,0.029854611565702918
6.85874349739896,-0.5641294160625097
6.862745098039216,0.898537224246486
6.866746698679472,-1.143687163137797
6.870748299319728,0.8321995807913132
6.874749899959984,-0.673578538947507
6.878751500600241,0.16704991639794653
6.882753101240496,0.23519796578795604
6.8867547018807524,-0.6493532588700924
6.890756302521009,0.9279759490891397
6.894757903161265,-0.9984313338471609
6.898759503801521,0.8320330645928133
6.902761104441777,-0.3475426673881287
6.906762705082033,-0.26604296061887844
6.91076430572229,0.9160173961294049
6.914765906362545,-1.5199414999129022
6.918767507002801,1.8488943944637768
6.922769107643058,-1.9296566149126195
6.926770708283313,1.8160308827289664
6.9307723089235695,-1.2874905774349932
6.934773909563826,0.574732221365911
6.938775510204082,0.243500253408633
6.942777110844338,-1.1896055029537382
6.946778711484594,1.9059842043534616
6.95078031212485,-2.5179275072186944
6.954781912765107,2.5723794459713623
6.958783513405362,-2.524907637273041
6.9627851140456185,1.935804592358705
6.966786714685875,-1.2051117449517643
6.97078831532613,0.3997094043798912
6.974789915966387,0.5624665626629343
6.978791516606643,-1.3023881830929167
6.982793117246899,1.8224282942622692
6.986794717887155,-2.1222426095058182
6.990796318527411,2.0311522714736157
6.9947979191676675,-1.8176461506635142
6.998799519807924,1.2761364407474618
7.002801120448179,-0.7559637724676923
7.006802721088436,0.3005089976842633
7.010804321728692,0.2471295662656905
7.014805922368948,-0.3968622114259737
7.018807523009204,0.5052058373684426
7.02280912364946,-0.49749527474106187
7.026810724289716,0.3543851112484065
7.030812324929972,-0.16907813968361457
7.034813925570228,0.21274889474981779
7.038815526210485,-0.14624183072778357
7.042817126850741,0.3376083310569926
7.046818727490996,-0.7371744617929963
7.050820328131253,1.126068560562044
7.054821928771509,-1.3918517608754242
7.058823529411765,1.5910561350639076
7.062825130052021,-1.8124662318373885
7.066826730692277,1.526222361139203
7.0708283313325335,-0.9079625459092444
7.074829931972789,0.2838580320743254
7.078831532613045,0.5555571173210142
7.082833133253302,-1.4694072628203667
7.086834733893558,2.3231532328266615
7.0908363345338135,-2.8615632206959623
7.09483793517407,3.226600091410284
7.098839535814326,-2.992901144930413
7.1028411364545825,2.5807734177807955
7.106842737094838,-1.6239317252985752
7.110844337735094,0.4991648716924726
7.114845938375351,0.6239977483335959
7.118847539015607,-1.7193940461741029
7.122849139655862,2.7178106382443086
7.126850740296119,-3.1550313656573037
7.130852340936375,3.293531548698248
7.1348539415766306,-3.0410845057461073
7.138855542216887,2.485056535759096
7.142857142857143,-1.605300206779982
7.1468587434974,0.7375417876494488
7.150860344137655,0.35959110324995947
7.154861944777911,-1.1101832985234108
7.158863545418168,1.919581095980141
7.162865146058424,-2.0610714319841517
7.1668667466986795,2.1028385457377023
7.170868347338936,-2.000434670849679
7.174869947979192,1.5532395530321603
7.178871548619448,-1.0371962015450054
7.182873149259704,0.6053260318242173
7.18687474989996,-0.15054125626763384
7.190876350540217,-0.1363553136613744
7.194877951180472,0.26115617140389846
7.1988795518207285,-0.29326947874058157
7.202881152460985,0.4181508208839912
7.206882753101241,-0.2893521699815462
7.210884353741497,0.32091488407160523
7.214885954381753,-0.21879533060873274
7.218887555022009,0.32402134008409744
7.222889155662265,-0.4245803267780139
7.226890756302521,0.585924717706939
7.230892356942777,-0.6593221785189088
7.234893957583034,0.8184058005246113
7.238895558223289,-0.8296543454465999
7.242897158863546,0.9049595081465966
7.246898759503802,-0.7967648648655496
7.250900360144058,0.5271036020238151
7.254901960784314,-0.2956228569360957
7.25890356142457,0.03656704946900123
7.262905162064826,0.20660306856428487
7.266906762705083,-0.4912588846338508
7.270908363345338,0.8341407647686113
7.2749099639855945,-0.944806067375411
7.278911564625851,1.0567544365086912
7.282913165266106,-1.2154415923734196
7.286914765906363,1.228962394500028
7.290916366546619,-1.269559792995135
7.294917967186875,1.293048962717311
7.298919567827131,-1.0686098987258608
7.302921168467387,0.8680688589359186
7.3069227691076435,-0.5043725918823272
7.3109243697479,-0.034416153502568325
7.314925970388155,0.5371989756604464
7.318927571028412,-1.224499992443391
7.322929171668668,1.73641710540992
7.326930772308923,-2.3306323938471922
7.33093237294918,2.9267221766705522
7.334933973589436,-3.0344415783929737
7.3389355742296924,2.8415345291903966
7.342937174869948,-2.388171999145518
7.346938775510204,1.480121260282378
7.350940376150461,-0.4370497950501082
7.354941976790717,-0.7014461785860282
7.358943577430972,2.0446238974818605
7.362945178071229,-3.084573750590258
7.366946778711485,3.933011824488808
7.370948379351741,-4.316270358849551
7.374949979991997,4.323006717582355
7.378951580632253,-3.556561585351559
7.3829531812725095,2.458898684591133
7.386954781912765,-1.0360750670944923
7.390956382553021,-0.4845075682518035
7.394957983193278,1.950303508155884
7.398959583833534,-3.119254997752033
7.4029611844737895,4.04298508191873
7.406962785114046,-4.437159715151943
7.410964385754302,4.043082670126644
7.4149659863945585,-3.2382894148001533
7.418967587034814,2.263673888217626
7.42296918767507,-0.9131238765231842
7.426970788315327,-0.3132041288247655
7.430972388955582,1.47288410239691
7.434973989595838,-2.2533455963638613
7.438975590236095,2.7565755382186747
7.442977190876351,-2.788912146887416
7.446978791516607,2.448375031463509
7.450980392156863,-1.7238794952885395
7.454981992797119,0.9750907379976602
7.458983593437376,-0.15791383015894528
7.462985194077631,-0.43077773244360285
7.466986794717887,0.685081219144445
7.470988395358144,-0.8446585820458906
7.4749899959984,0.6986502756514341
7.4789915966386555,-0.252320846496841
7.482993197278912,-0.10474600028995901
7.486994797919168,0.58762572924694
7.490996398559424,-0.8200208116477777
7.49499799919968,0.7255073966871088
7.498999599839936,-0.5977792228987512
7.503001200480193,0.03681095637434374
7.507002801120448,0.5554712419485556
7.5110044017607045,-1.1875429817167538
7.515006002400961,1.8172237213906437
7.519007603041217,-2.246425769797293
7.523009203681473,2.4295381571474963
7.527010804321729,-2.2097071871585414
7.531012404961985,1.5658774256554344
7.535014005602241,-0.8550253742699998
7.539015606242497,-0.04040352591590001
7.5430172068827535,0.9613016553033892
7.54701880752301,-1.8889350284474018
7.551020408163265,2.572193670081578
7.555022008803522,-2.8699882931364247
7.559023609443778,2.81177168533542
7.563025210084034,-2.4987907741286324
7.56702681072429,1.8721749651784014
7.571028411364546,-1.2876477894985052
7.575030012004802,0.36164917099300886
7.579031612645059,0.34483573160496017
7.583033213285314,-1.0107972295318544
7.5870348139255706,1.5542139526216043
7.591036414565827,-1.7614647271199146
7.595038015206082,1.9575382894522135
7.599039615846339,-1.8783475762181456
7.603041216486595,1.6882656885606966
7.607042817126851,-1.4628386524554324
7.611044417767107,1.3023305555197338
7.615046018407363,-1.0332223739019664
7.6190476190476195,0.6657818690698669
7.623049219687876,-0.48601715711648485
7.627050820328131,0.17398729652116757
7.631052420968388,0.1039456124013113
7.635054021608644,-0.6149002008045287
7.6390556222488994,1.0108592876801947
7.643057222889156,-1.53342497900823
7.647058823529412,2.0475139645442875
7.6510604241696685,-2.2724228242745483
7.655062024809924,2.3778079748450405
7.65906362545018,-2.268749707751278
7.663065226090437,1.9779177811812791
7.667066826730693,-1.4095184035829424
7.671068427370948,0.6057126691436502
7.675070028011205,0.332296652173386
7.679071628651461,-1.1758516427908994
7.6830732292917165,1.9786458680989802
7.687074829931973,-2.67107283798644
7.691076430572229,2.976781725552742
7.695078031212486,-3.001337825760654
7.699079631852741,2.6615058037901975
7.703081232492997,-2.212755858222088
7.707082833133254,1.4965774805513479
7.71108443377351,-0.5529137836985455
7.7150860344137655,-0.14685878848264208
7.719087635054022,1.0250977213367796
7.723089235694278,-1.4905219045165823
7.7270908363345345,1.9812793670868027
7.73109243697479,-2.2392875755139063
7.735094037615046,2.1194266269691204
7.739095638255303,-1.9100766258329442
7.743097238895558,1.6656474828459527
7.7470988395358145,-1.3759225284542265
7.751100440176071,0.9567201558386269
7.755102040816327,-0.5478709654372171
7.759103641456583,0.2730282423449028
7.763105242096839,0.11202788240240866
7.767106842737095,-0.3678350030894234
7.771108443377352,0.9010844190439133
7.775110044017607,-1.3361208547469514
7.779111644657863,1.5084403343611674
7.78311324529812,-1.8598320025189932
7.787114845938375,1.9881720456046987
7.791116446578632,-2.0118320124406077
7.795118047218888,1.9832069870130935
7.799119647859144,-1.4574620594058698
7.8031212484994,1.0054777475827257
7.807122849139656,-0.3540179096479916
7.811124449779912,-0.41124792352446415
7.815126050420169,1.1017822810472984
7.819127651060424,-1.8190025619993504
7.8231292517006805,2.2953421716875853
7.827130852340937,-2.3782596110396748
7.831132452981193,2.2008873676106635
7.835134053621449,-1.959897984998837
7.839135654261705,1.2778398573497378
7.843137254901961,-0.7308034039621165
7.847138855542217,-0.005644124330555458
7.851140456182473,0.6949015723129489
7.8551420568227295,-1.01426686012461
7.859143657462986,1.3204304806027205
7.863145258103241,-1.1858288455275525
7.867146858743498,1.0045260861032121
7.871148459383754,-0.6305494945096639
7.87515006002401,0.269339765063708
7.879151660664266,0.09670743097203659
7.883153261304522,-0.15823608036242137
7.887154861944778,0.27074028298998015
7.891156462585034,0.10405749385239066
7.89515806322529,-0.5291540721173503
7.899159663865547,0.8597995062802748
7.903161264505803,-1.2794952187094342
7.907162865146058,1.5954604545492583
7.911164465786315,-1.5164773244805743
7.915166066426571,1.261853979820652
7.919167667066827,-0.6048710388792601
7.923169267707083,-0.3055674409973658
7.927170868347339,1.2290823509476851
7.9311724689875955,-2.3021798206279316
7.935174069627852,3.14394915742581
7.939175670268107,-3.7251662104234975
7.943177270908364,3.6896778177611367
7.94717887154862,-3.236535501271086
7.9511804721888755,2.345928282922193
7.955182072829132,-0.918136668223845
7.959183673469388,-0.5475239160142361
7.9631852741096445,2.0512401635194353
7.9671868747499,-3.3519368139041807
7.971188475390156,4.340523811648352
7.975190076030413,-4.788049596294507
7.979191676670669,4.501637437181377
7.983193277310924,-3.85614397128222
7.987194877951181,2.6856254206347545
7.991196478591437,-1.0701144865915002
7.995198079231693,-0.5477596179752419
7.999199679871949,1.8885484259802316
8.003201280512204,-3.1371365932729804
8.00720288115246,3.9224422001883066
8.011204481792717,-4.074853366430638
8.015206082432973,3.8969756612742357
8.01920768307323,-3.287978623819818
8.023209283713486,2.2652518725782986
8.027210884353742,-1.0438234015862589
8.031212484993999,-0.12051566700319163
8.035214085634253,1.0213357340596627
8.03921568627451,-1.7747846023887406
8.043217286914766,2.154535176146619
8.047218887555022,-2.221018181521899
8.051220488195279,1.986601247083265
8.055222088835535,-1.7292499903720473
8.059223689475791,1.266283190252889
8.063225290116046,-0.7689341829586686
8.067226890756302,0.2693131938388607
8.071228491396559,-0.005492742928192039
8.075230092036815,-0.08625573045660004
8.079231692677071,0.18516100910088673
8.083233293317328,-0.28982840427271944
8.087234893957584,0.16002664586592996
8.09123649459784,-0.12416825232257017
8.095238095238095,0.247935249336027
8.099239695878351,-0.300855414370686
8.103241296518608,0.42051321405333364
8.107242897158864,-0.7327727308714229
8.11124449779912,0.7233432250132367
8.115246098439377,-0.949872518500111
8.119247699079633,1.0820491508476608
8.123249299719888,-1.0004490043132097
8.127250900360144,0.7309901403350089
8.1312525010004,-0.6020983991475177
8.135254101640657,0.3227704218782316
8.139255702280913,0.08121664039857762
8.14325730292117,-0.31354639491953484
8.147258903561426,0.4649927333697045
8.15126050420168,-0.6603577042631393
8.155262104841936,0.84982927404019
8.159263705482193,-0.8739589958311182
8.16326530612245,0.9325713586683824
8.167266906762706,-0.9519795620330008
8.171268507402962,0.9909900194896507
8.175270108043218,-1.0257205569668
8.179271708683475,0.975061475491826
8.183273309323729,-0.9095370534904219
8.187274909963985,0.6606135862213255
8.191276510604242,-0.46619920306098206
8.195278111244498,-0.0058706932030067535
8.199279711884754,0.5997603671096297
8.20328131252501,-1.1377636960964235
8.207282913165267,1.6722757876434136
8.211284513805522,-2.0839411525814415
8.215286114445778,2.2913868061750247
8.219287715086034,-2.3671684408276796
8.22328931572629,2.115569319022839
8.227290916366547,-1.7376565666527126
8.231292517006803,0.9080012862142494
8.23529411764706,0.14563056449029532
8.239295718287316,-1.094307794776133
8.24329731892757,1.9778743204872138
8.247298919567827,-2.6814909832677443
8.251300520208083,3.0273563096316685
8.25530212084834,-3.038866057761256
8.259303721488596,2.758037469179313
8.263305322128852,-2.136991299875403
8.267306922769109,1.1712160292915375
8.271308523409363,-0.15429187752366366
8.27531012404962,-0.808975803822435
8.279311724689876,1.6182091713665219
8.283313325330132,-2.236121785540524
8.287314925970389,2.5604726281483434
8.291316526610645,-2.5955135469042014
8.295318127250901,2.118659860724476
8.299319727891156,-1.5423599892610498
8.303321328531412,0.9417162892393829
8.307322929171669,-0.3015202517354993
8.311324529811925,-0.23434649979291683
8.315326130452181,0.6269650498675708
8.319327731092438,-0.8144657825624325
8.323329331732694,0.865355139024576
8.32733093237295,-0.7942445151754834
8.331332533013205,0.5220744001626354
8.335334133653461,-0.32402749232534717
8.339335734293718,0.24635389867257768
8.343337334933974,-0.28472584678205115
8.34733893557423,0.42512564105232437
8.351340536214487,-0.6758854835849045
8.355342136854743,0.8504800389704079
8.359343737494997,-1.046520114013658
8.363345338135254,1.1434633389947484
8.36734693877551,-0.9791554439257739
8.371348539415767,0.7711294598923498
8.375350140056023,-0.19509791952227196
8.37935174069628,-0.4421616998170465
8.383353341336536,1.138142919141975
8.387354941976792,-1.7130669886576677
8.391356542617046,2.1775285939707274
8.395358143257303,-2.319559772629454
8.39935974389756,2.219392002133605
8.403361344537815,-1.7460628841595416
8.407362945178072,0.9809127709510781
8.411364545818328,-0.0684530133144533
8.415366146458584,-0.7662670648563262
8.419367747098839,1.501276747017266
8.423369347739095,-2.070850124127034
8.427370948379352,2.445133307119662
8.431372549019608,-2.2353159971815564
8.435374149659864,1.8355655788473284
8.43937575030012,-1.159721906679746
8.443377350940377,0.3952257615641121
8.447378951580633,0.4171407928347462
8.451380552220888,-1.1637205077156312
8.455382152861144,1.5311902913846531
8.4593837535014,-1.6318514820618968
8.463385354141657,1.464881971587127
8.467386954781913,-0.9532780784025856
8.47138855542217,0.3156022655076476
8.475390156062426,0.3063847165735552
8.47939175670268,-0.7245316634824965
8.483393357342937,1.1042605591176917
8.487394957983193,-1.0839651144675797
8.49139655862345,1.0011424511407438
8.495398159263706,-0.4083788809079862
8.499399759903962,-0.1717891854441632
8.503401360544219,0.7398129591273819
8.507402961184473,-1.3853830410908288
8.51140456182473,1.6972251283596855
8.515406162464986,-1.7825605275214502
8.519407763105242,1.5685492120137812
8.523409363745499,-0.9700734668373492
8.527410964385755,0.22481398593162258
8.531412565026011,0.7182183828558993
8.535414165666268,-1.4186679836569709
8.539415766306522,2.1493063389697578
8.543417366946779,-2.4122215576163755
8.547418967587035,2.5739019666316847
8.551420568227291,-2.27731279080551
8.555422168867548,1.5256889960225102
8.559423769507804,-0.726622352228648
8.56342537014806,-0.15747006760396642
8.567426970788315,1.0949623334859269
8.571428571428571,-1.848171058921798
8.575430172068828,2.412436554598401
8.579431772709084,-2.535022768674618
8.58343337334934,2.446403646813873
8.587434973989597,-2.0791358272942317
8.591436574629853,1.5117814890631451
8.59543817527011,-0.8111530577456935
8.599439775910364,-0.0711336268365033
8.60344137655062,0.7053752526640563
8.607442977190876,-1.2442857323226706
8.611444577831133,1.6634235142701153
8.61544617847139,-1.8122382756115751
8.619447779111646,1.807376460945651
8.623449379751902,-1.6298327928687568
8.627450980392156,1.4432592825947497
8.631452581032413,-1.0682347535131476
8.635454181672669,0.5335859060189378
8.639455782312925,-0.07812097350510834
8.643457382953182,-0.2175735174291746
8.647458983593438,0.8543839444258383
8.651460584233694,-1.1305669648378738
8.65546218487395,1.3867394862809168
8.659463785514205,-1.499505077871693
8.663465386154462,1.4887919129737237
8.667466986794718,-1.4742992265293444
8.671468587434974,1.2118383079237451
8.67547018807523,-0.8236070108756782
8.679471788715487,0.29841621117210526
8.683473389355743,0.3268332925803368
8.687474989995998,-0.7388162656994155
8.691476590636254,1.2600082795287222
8.69547819127651,-1.5643400811483912
8.699479791916767,1.6312153552091588
8.703481392557023,-1.5515982768385335
8.70748299319728,1.2767818538214804
8.711484593837536,-0.6464352341289109
8.71548619447779,-0.07460117346972611
8.719487795118047,0.657629300329821
8.723489395758303,-1.289051860497724
8.72749099639856,1.6077708083529756
8.731492597038816,-1.6951126639053802
8.735494197679072,1.6080116001552969
8.739495798319329,-1.1161941683806038
8.743497398959585,0.5148606752528404
8.74749899959984,0.32320214569457084
8.751500600240096,-1.1000962874965075
8.755502200880352,1.5793223593219436
8.759503801520609,-2.0626144737062964
8.763505402160865,2.016764135314676
8.767507002801121,-1.6332506906000774
8.771508603441378,1.1367834266564143
8.775510204081632,-0.16382677458576692
8.779511804721889,-0.7425874428928011
8.783513405362145,1.5469253547540744
8.787515006002401,-2.1804205426885743
8.791516606642658,2.5095369643949557
8.795518207282914,-2.365170527006822
8.79951980792317,1.8039729972207244
8.803521408563427,-1.0798231550569959
8.807523009203681,0.16798480058238208
8.811524609843937,0.9531791445509489
8.815526210484194,-1.8057173451477282
8.81952781112445,2.4298806886472084
8.823529411764707,-2.7284591435282364
8.827531012404963,2.5870185610309067
8.83153261304522,-2.0034238938363846
8.835534213685474,1.2570064081940973
8.83953581432573,-0.2420504871958587
8.843537414965986,-0.8570760122933234
8.847539015606243,1.737255415464922
8.8515406162465,-2.1292556355493573
8.855542216886755,2.454085472937998
8.859543817527012,-2.2295384041891166
8.863545418167266,1.8033456994722905
8.867547018807523,-0.9847021958531402
8.871548619447779,0.09860542173879627
8.875550220088035,0.6985798217339714
8.879551820728292,-1.420860077127391
8.883553421368548,1.7466815311356665
8.887555022008804,-1.887165927272557
8.89155662264906,1.5736841860452375
8.895558223289315,-1.221103714557654
8.899559823929572,0.48993948555839334
8.903561424569828,0.13510549001414346
8.907563025210084,-0.781521391507755
8.91156462585034,1.0419603599997993
8.915566226490597,-1.292186509420524
8.919567827130853,1.0490743045356867
8.923569427771108,-0.7509642835946727
8.927571028411364,0.31467416387446123
8.93157262905162,0.09267106978592435
8.935574229691877,-0.49082612351712634
8.939575830332133,0.7610488462181164
8.94357743097239,-0.828443286061968
8.947579031612646,0.6405668199593381
8.951580632252902,-0.40854728172987875
8.955582232893157,0.10886401560018699
8.959583833533413,0.21319331682863596
8.96358543417367,-0.4813133561972965
8.967587034813926,0.6206551502607982
8.971588635454182,-0.6616277323332935
8.975590236094439,0.44329611936452196
8.979591836734695,-0.2330453376274785
8.98359343737495,-0.025887341944505413
8.987595038015206,0.49209742913052
8.991596638655462,-0.6432061905356345
8.995598239295719,0.7426947821063287
8.999599839935975,-0.5396800111109994
9.003601440576231,0.3507138351072166
9.007603041216488,-0.03640364240087654
9.011604641856744,-0.36424548262796913
9.015606242496998,0.7836642939277316
9.019607843137255,-0.986017099006578
9.023609443777511,1.0250339733632843
9.027611044417768,-0.8843274941536455
9.031612645058024,0.5118696038539696
9.03561424569828,-0.13955798475070347
9.039615846338537,-0.36221506333738535
9.043617446978791,0.7642610078712062
9.047619047619047,-1.2360794449331072
9.051620648259304,1.4310333488737834
9.05562224889956,-1.4281174447171714
9.059623849539816,1.1266077129066059
9.063625450180073,-0.6915971330558739
9.06762705082033,0.13062498401328212
9.071628651460584,0.4410869684959165
9.07563025210084,-0.9017370282444682
9.079631852741096,1.1756619968159872
9.083633453381353,-1.4483346841457752
9.087635054021609,1.4699060868796991
9.091636654661865,-1.3288137562406377
9.095638255302122,0.915302893478886
9.099639855942378,-0.42850428863562945
9.103641456582633,-0.06251317890089873
9.107643057222889,0.4544455381885906
9.111644657863145,-0.7670182594726445
9.115646258503402,1.0228157506070805
9.119647859143658,-1.0383236690270288
9.123649459783914,0.8949014864410147
9.12765106042417,-0.8858750691091718
9.131652661064425,0.5667417623948133
9.135654261704682,-0.3238732008300699
9.139655862344938,0.22871384398992983
9.143657462985194,-0.09289026461405717
9.14765906362545,-0.016610431795429384
9.151660664265707,0.13764677869976058
9.155662264905963,-0.23637524586043038
9.15966386554622,0.38786052815245436
9.163665466186474,-0.37600214197945625
9.16766706682673,0.6063573728357233
9.171668667466987,-0.7398069895544823
9.175670268107243,0.7358989190290715
9.1796718687475,-0.8696876610646456
9.183673469387756,0.7475953540624802
9.187675070028012,-0.5498136691362402
9.191676670668267,0.20224189075217755
9.195678271308523,0.11824660754611237
9.19967987194878,-0.5307323634144155
9.203681472589036,0.8867157345243328
9.207683073229292,-1.069076191156449
9.211684673869549,1.2049879989134822
9.215686274509805,-1.0907738748255291
9.219687875150061,0.8046414628096378
9.223689475790316,-0.38674960909510697
9.227691076430572,-0.08259188741820214
9.231692677070829,0.6467569401544857
9.235694277711085,-1.0128352356893684
9.239695878351341,1.2257400540966004
9.243697478991598,-1.1181580454765785
9.247699079631854,0.8222171692447956
9.251700680272108,-0.34516847246472626
9.255702280912365,-0.13274199284773702
9.259703881552621,0.7484834116054313
9.263705482192877,-1.2281136875245047
9.267707082833134,1.5268013905001006
9.27170868347339,-1.566082447561443
9.275710284113647,1.2955371817084422
9.279711884753901,-0.6798874839980944
9.283713485394157,-0.053060672668701236
9.287715086034414,1.005568854800468
9.29171668667467,-1.738098422426424
9.295718287314926,2.2829108890551293
9.299719887955183,-2.7152874529330746
9.30372148859544,2.472782719917146
9.307723089235695,-1.9571345773169821
9.31172468987595,0.8891509780051406
9.315726290516206,0.21743149922618368
9.319727891156463,-1.4818821012158954
9.323729491796719,2.5038967342227223
9.327731092436975,-3.3053194139017235
9.331732693077232,3.6379869591520153
9.335734293717488,-3.5579693916474575
9.339735894357743,2.7667219862254773
9.343737494997999,-1.711546945089862
9.347739095638255,0.3687710879616787
9.351740696278512,0.9914892334344442
9.355742296918768,-2.33400339130009
9.359743897559024,3.3927863350716434
9.36374549819928,-3.722539820751878
9.367747098839537,3.8947186539400054
9.371748699479792,-3.3645777137911064
9.375750300120048,2.4273114764069175
9.379751900760304,-1.2599551568582916
9.38375350140056,-0.07938516376665555
9.387755102040817,1.4101484396468158
9.391756702681073,-2.318818976542593
9.39575830332133,2.8971557488622746
9.399759903961584,-3.09830636467444
9.40376150460184,2.8832991670301102
9.407763105242097,-2.259806154367204
9.411764705882353,1.5203356553793665
9.41576630652261,-0.5860676212473468
9.419767907162866,-0.2928487096376826
9.423769507803122,0.9346930884947008
9.427771108443377,-1.3571487039472578
9.431772709083633,1.60457890318041
9.43577430972389,-1.4325726916329096
9.439775910364146,1.2302409955184568
9.443777511004402,-0.863145660594887
9.447779111644659,0.4566700908937995
9.451780712284915,0.018920351740541366
9.455782312925171,-0.17402299121406892
9.459783913565426,0.21577903184676928
9.463785514205682,-0.18381398392812104
9.467787114845938,-0.07097339541319966
9.471788715486195,0.16357302489890613
9.475790316126451,-0.2824548317724756
9.479791916766708,0.4853398442293695
9.483793517406964,-0.42682166961287
9.487795118047218,0.3188235432668758
9.491796718687475,-0.08405746005360842
9.495798319327731,-0.16698268480407286
9.499799919967987,0.4189179181271851
9.503801520608244,-0.7229271279129432
9.5078031212485,0.998285182944148
9.511804721888756,-0.9304701730343562
9.515806322529013,0.9500182925365255
9.519807923169267,-0.7852454937938341
9.523809523809524,0.6530349583462097
9.52781112444978,-0.37080914769532597
9.531812725090036,0.13444838697398487
9.535814325730293,0.04310134528699207
9.539815926370549,-0.21734334571419367
9.543817527010805,0.3980185985793143
9.54781912765106,-0.6129831754052083
9.551820728291316,0.6017499332619101
9.555822328931573,-0.7327159401192869
9.559823929571829,0.9073735074846948
9.563825530212085,-1.0393693005843194
9.567827130852342,1.122271295191668
9.571828731492598,-1.1587613412523228
9.575830332132854,1.124397473534019
9.579831932773109,-0.7821582102968998
9.583833533413365,0.4299139016015673
9.587835134053622,-0.06442976619214658
9.591836734693878,-0.5388938622741886
9.595838335334134,1.2318840310116173
9.59983993597439,-1.6424160500763638
9.603841536614647,2.13389909319152
9.607843137254902,-2.339969433436126
9.611844737895158,2.3444898789605473
9.615846338535414,-2.057801103803916
9.61984793917567,1.5126245271284084
9.623849539815927,-0.7364569912703895
9.627851140456183,-0.2072326891045434
9.63185274109644,1.0900722564592593
9.635854341736694,-1.9567463456979108
9.63985594237695,2.5202373675823906
9.643857543017207,-2.726584490536875
9.647859143657463,2.7307253820451276
9.65186074429772,-2.30771934399161
9.655862344937976,1.7234396711944069
9.659863945578232,-0.9680509147497773
9.663865546218489,0.2421175140238932
9.667867146858743,0.5634853441217871
9.671868747499,-1.1051015356248979
9.675870348139256,1.5694049916016093
9.679871948779512,-1.7516440566915696
9.683873549419769,1.7381421981264351
9.687875150060025,-1.6202840993104346
9.691876750700281,1.2324151391232392
9.695878351340536,-1.030731468868228
9.699879951980792,0.6261705362817691
9.703881552621048,-0.5438239934941458
9.707883153261305,0.3149386024327216
9.711884753901561,-0.2848082895733281
9.715886354541817,0.1881731415478093
9.719887955182074,0.04625791795949996
9.72388955582233,-0.037281655485294135
9.727891156462585,0.2731679947025158
9.731892757102841,-0.8087475263472059
9.735894357743097,1.2155100767662443
9.739895958383354,-1.6607715448081652
9.74389755902361,2.0546094804214157
9.747899159663866,-2.19693363621654
9.751900760304123,2.130196855555535
9.755902360944377,-1.7948213407332052
9.759903961584634,1.1982686633767485
9.76390556222489,-0.3361283564598383
9.767907162865146,-0.5828587923453923
9.771908763505403,1.630254823831469
9.775910364145659,-2.3755313015013475
9.779911964785915,2.90071393633987
9.78391356542617,-3.0654594766631336
9.787915166066426,3.1149166380729953
9.791916766706683,-2.451762707010216
9.795918367346939,1.6645485401301838
9.799919967987195,-0.5501064624405574
9.803921568627452,-0.5179518728601016
9.807923169267708,1.4199761310946402
9.811924769907964,-2.159107326987764
9.815926370548219,2.4899545109168937
9.819927971188475,-2.5121442719421143
9.823929571828732,2.1261375443946258
9.827931172468988,-1.5422602734397286
9.831932773109244,0.754838057844076
9.8359343737495,0.001961160672409836
9.839935974389757,-0.5959970980865134
9.843937575030012,1.0432332279975014
9.847939175670268,-1.164720680943256
9.851940776310524,0.9354218095671505
9.85594237695078,-0.5540537066661291
9.859943977591037,-0.013162052817303857
9.863945578231293,0.38847481933195444
9.86794717887155,-0.7168229114457079
9.871948779511806,0.8869167972679234
9.87595038015206,-0.861958812403755
9.879951980792317,0.2636656431570038
9.883953581432573,0.26852447819907455
9.88795518207283,-0.9437120748002424
9.891956782713086,1.6226048454544377
9.895958383353342,-2.1631236131183487
9.899959983993599,2.4791873703352056
9.903961584633853,-2.3712081233026665
9.90796318527411,1.8521198952668585
9.911964785914366,-1.0193826297573123
9.915966386554622,0.008166534076111523
9.919967987194878,1.1708100903383505
9.923969587835135,-2.2666117691915293
9.927971188475391,3.080900762333362
9.931972789115648,-3.629519147742812
9.935974389755902,3.7247326117489226
9.939975990396158,-3.317020875259639
9.943977591036415,2.4509149661052847
9.947979191676671,-1.4532574036690233
9.951980792316927,0.2810029682386531
9.955982392957184,1.0972040110196188
9.95998399359744,-2.085095655746729
9.963985594237695,3.0681355112774287
9.967987194877951,-3.5676702799842444
9.971988795518207,3.6911805308107692
9.975990396158464,-3.396022180693437
9.97999199679872,2.85606333359514
9.983993597438976,-1.9696780159092568
9.987995198079233,1.0311106611406893
9.991996798719487,-0.16078687042149964
9.995998399359744,-0.9333735042931305
10.0,1.5961275143410918
